1582046379.00
64.000000
-0.00
-0.00
-0.00
-0.00
-0.00
-0.00
-0.00
-0.00
-0.00
-0.00
0.00
0.01
0.01
-0.00
-0.03
-0.05
-0.05
0.00
0.13
0.36
0.66
1.01
1.37
1.72
2.06
2.40
2.79
3.24
3.80
4.42
5.06
5.66
6.20
6.68
7.15
7.68
8.31
9.14
10.09
11.04
11.88
12.56
13.14
13.76
14.65
15.96
17.91
20.32
22.90
25.38
27.58
29.57
31.68
34.32
37.81
42.54
48.15
54.10
59.83
64.97
69.58
74.14
79.34
85.71
93.76
103.00
112.62
121.73
129.77
136.75
143.30
150.75
157.77
166.64
177.95
191.79
206.97
220.57
228.25
225.36
208.53
176.87
132.76
80.05
23.07
-34.94
-92.44
-149.16
-205.23
-260.37
-313.74
-363.88
-409.84
-450.91
-486.50
-515.73
-537.21
-549.20
-549.92
-538.31
-514.12
-478.55
-433.72
-382.25
-326.77
-269.54
-212.27
-156.24
-102.47
-51.82
-5.29
36.27
72.18
102.18
126.41
145.37
159.78
170.33
177.66
182.16
184.12
183.76
181.36
177.27
171.89
165.64
158.87
151.81
144.61
137.35
130.06
122.79
115.61
108.58
101.79
95.27
89.06
83.18
77.64
72.45
67.62
63.16
59.08
55.38
52.06
49.11
46.52
44.30
42.43
40.93
39.79
39.00
38.55
38.38
38.45
38.64
38.83
38.86
38.56
37.75
36.29
34.04
30.96
27.05
22.35
17.00
11.21
5.22
-0.72
-6.34
-11.39
-15.70
-19.14
-21.63
-23.17
-23.82
-23.70
-22.93
-21.65
-20.01
-18.12
-16.07
-13.94
-11.75
-9.53
-7.31
-5.08
-2.83
-0.55
1.80
4.22
6.75
9.43
12.23
15.14
18.13
21.22
24.42
27.75
31.22
34.89
38.80
42.86
47.03
51.28
55.60
60.02
64.56
69.27
74.23
79.54
85.06
90.72
96.46
102.28
108.15
114.07
120.06
126.13
132.35
138.41
144.07
149.11
153.29
156.29
157.73
157.09
153.61
148.67
142.76
136.18
129.14
121.79
114.28
106.71
99.23
91.98
85.16
78.62
72.32
66.29
60.53
55.06
49.91
45.10
40.64
36.59
32.80
29.15
25.62
22.18
18.82
15.53
12.33
9.24
6.37
3.69
1.24
-0.94
-2.80
-4.39
-5.76
-7.04
-8.35
-9.75
-11.27
-12.90
-14.54
-16.12
-17.67
-19.31
-21.23
-23.60
-26.47
-29.77
-33.24
-36.58
-39.64
-42.44
-45.32
-48.74
-53.14
-58.72
-65.32
-72.46
-79.59
-86.32
-92.69
-99.19
-106.53
-115.43
-126.18
-138.53
-151.83
-165.31
-178.42
-191.09
-203.70
-216.95
-231.71
-248.94
-269.49
-293.73
-320.91
-348.68
-373.15
-389.82
-395.01
-387.25
-367.82
-340.09
-308.09
-275.01
-242.48
-210.88
-180.28
-151.28
-125.17
-103.42
-86.89
-75.36
-67.69
-62.33
-57.96
-53.76
-49.40
-44.64
-39.06
-31.94
-22.54
-10.42
4.19
20.29
36.37
50.86
62.68
71.54
77.91
82.70
86.78
90.56
93.90
96.22
96.89
95.48
91.98
86.80
80.59
74.11
68.00
62.74
58.57
55.56
53.63
52.51
51.70
50.44
47.80
42.97
35.59
26.01
15.25
4.71
-4.23
-10.47
-13.37
-12.60
-8.16
-0.45
9.47
19.79
28.27
32.78
32.17
26.78
18.39
9.58
2.81
-0.35
0.52
4.91
11.82
20.10
28.61
36.11
41.33
43.19
41.16
35.67
28.09
20.38
14.41
11.29
11.11
13.02
15.74
18.12
19.53
19.99
19.94
19.96
20.43
21.34
22.28
22.61
21.69
19.15
15.12
10.29
5.76
2.77
2.29
4.68
9.48
15.53
21.21
24.85
25.18
21.64
14.57
5.11
-5.06
-14.16
-20.72
-23.99
-24.05
-21.70
-18.16
-14.68
-12.20
-11.15
-11.41
-12.42
-13.48
-13.87
-13.21
-11.51
-9.26
-7.19
-6.13
-6.65
-8.86
-12.36
-16.33
-19.85
-22.09
-22.56
-21.08
-17.76
-12.86
-6.63
0.60
8.39
16.13
22.99
28.06
30.57
30.12
26.78
21.06
13.80
5.84
-2.15
-9.75
-16.66
-22.50
-26.61
-28.12
-26.22
-20.51
-11.24
0.73
14.14
27.73
40.45
51.54
60.45
66.90
70.83
72.46
72.30
70.94
68.86
66.26
63.06
59.06
54.18
48.58
42.68
37.02
32.05
28.08
25.15
23.13
21.80
20.95
20.36
19.90
19.41
18.82
18.02
16.90
15.30
12.91
9.45
4.64
-1.46
-8.44
-15.45
-21.43
-25.38
-26.71
-25.42
-22.11
-17.72
-13.29
-9.66
-7.41
-6.77
-7.71
-9.97
-13.06
-16.38
-19.31
-21.41
-22.59
-23.19
-23.75
-24.65
-25.79
-26.50
-25.86
-23.14
-18.26
-11.84
-4.94
1.41
6.62
10.57
13.45
15.45
16.58
16.75
15.88
14.01
11.30
7.92
3.98
-0.45
-5.20
-9.93
-14.14
-17.40
-19.50
-20.62
-21.20
-21.77
-22.70
-24.11
-25.94
-28.05
-30.41
-33.02
-35.92
-38.95
-41.70
-43.63
-44.20
-43.09
-40.38
-36.47
-31.95
-27.48
-23.57
-20.54
-18.45
-17.23
-16.64
-16.43
-16.32
-16.08
-15.56
-14.71
-13.57
-12.31
-11.18
-10.46
-10.31
-10.67
-11.19
-11.40
-10.88
-9.48
-7.38
-5.00
-2.72
-0.75
0.93
2.41
3.73
4.81
5.43
5.40
4.59
3.10
1.06
-1.28
-3.57
-5.44
-6.55
-6.72
-6.01
-4.79
-3.53
-2.66
-2.34
-2.47
-2.60
-2.26
-1.01
1.38
4.83
8.97
13.11
16.36
17.76
16.54
12.33
5.40
-3.37
-12.78
-21.60
-28.98
-34.53
-38.31
-40.61
-41.68
-41.73
-40.92
-39.54
-38.04
-36.93
-36.58
-37.03
-37.89
-38.55
-38.40
-37.18
-35.05
-32.48
-29.99
-27.79
-25.68
-23.10
-19.45
-14.33
-7.63
0.47
9.66
19.61
29.95
40.27
50.05
58.68
65.54
70.05
71.67
69.92
64.57
55.74
44.22
31.45
19.24
9.36
3.02
0.54
1.41
4.58
8.87
13.26
17.07
19.93
21.51
21.65
20.25
17.53
14.03
10.56
7.95
6.74
6.99
8.27
9.92
11.39
12.41
13.10
13.81
14.85
16.29
17.87
18.98
18.83
16.62
11.78
4.18
-5.75
-17.03
-28.18
-37.46
-43.26
-44.32
-40.18
-31.40
-19.49
-6.72
4.52
12.28
15.66
14.92
11.34
6.62
2.38
-0.43
-1.66
-1.77
-1.49
-1.38
-1.57
-1.75
-1.37
0.04
2.55
5.82
9.19
12.06
14.06
15.21
15.80
16.13
16.36
16.39
16.02
15.09
13.64
11.91
10.18
8.66
7.42
6.43
5.70
5.31
5.29
5.53
5.75
5.57
4.90
4.07
3.75
4.65
7.00
10.26
13.29
14.85
14.24
11.62
7.93
4.39
1.83
0.44
-0.21
-0.78
-1.77
-3.26
-5.02
-6.68
-7.99
-8.83
-9.06
-8.55
-7.08
-4.64
-1.58
1.21
2.58
1.48
-2.64
-9.48
-17.94
-26.38
-33.14
-37.00
-37.59
-35.59
-32.63
-30.86
-32.21
-37.81
-47.38
-59.38
-71.34
-80.84
-86.20
-87.00
-84.03
-78.94
-73.48
-68.89
-65.57
-63.02
-60.15
-55.92
-49.91
-42.59
-35.42
-30.30
-28.89
-31.95
-38.96
-48.32
-57.83
-65.53
-70.24
-71.86
-71.18
-69.42
-67.71
-66.73
-66.66
-67.32
-68.43
-69.77
-71.26
-72.85
-74.49
-75.92
-76.66
-76.01
-73.19
-67.52
-58.63
-46.58
-31.90
-15.54
1.32
17.52
32.20
45.07
56.50
67.37
78.82
91.80
106.62
122.78
138.99
153.57
164.98
172.24
175.30
174.84
171.98
167.80
162.94
157.50
151.19
143.62
134.64
124.42
113.31
101.71
89.98
78.46
67.60
57.99
50.20
44.64
41.29
39.71
39.21
39.19
39.50
40.54
43.18
48.35
56.52
67.29
79.38
91.07
100.96
108.63
114.77
120.67
127.17
134.09
140.31
144.83
148.01
152.02
160.09
174.53
194.98
217.81
237.48
249.02
250.26
242.43
228.92
212.99
195.85
176.36
152.23
121.70
84.77
43.10
-0.99
-45.43
-88.62
-128.92
-163.87
-190.01
-203.70
-202.68
-187.78
-163.60
-137.58
-117.81
-110.02
-115.47
-130.52
-148.27
-161.54
-165.83
-160.86
-150.13
-138.82
-131.16
-128.70
-130.01
-131.82
-130.72
-124.50
-112.85
-97.05
-79.42
-62.48
-48.36
-38.40
-33.12
-32.12
-34.21
-37.57
-40.11
-39.91
-35.73
-27.52
-16.57
-5.21
3.96
9.05
9.65
7.00
3.37
1.09
1.50
4.33
7.76
9.06
5.56
-4.49
-21.23
-43.04
-66.93
-89.30
-106.90
-117.87
-122.18
-121.61
-118.99
-117.00
-117.24
-119.78
-123.35
-126.12
-126.95
-126.62
-128.46
-137.70
-159.40
-195.84
-244.35
-297.02
-342.97
-371.82
-376.93
-356.84
-314.60
-256.08
-188.79
-121.58
-64.58
-27.82
-17.99
-34.87
-69.74
-107.66
-133.09
-136.24
-116.44
-81.32
-42.19
-8.69
14.50
27.52
33.04
33.52
29.97
22.47
11.44
-1.50
-13.56
-21.72
-23.97
-19.80
-10.39
2.25
16.25
30.57
45.51
62.34
82.61
107.48
137.22
171.13
207.92
246.25
284.88
322.78
358.79
391.42
418.84
439.21
451.08
453.82
447.79
434.29
415.44
393.75
371.61
350.59
330.93
311.27
289.09
261.42
225.76
180.54
125.39
61.51
-7.62
-75.81
-134.66
-175.64
-193.14
-187.26
-164.36
-134.92
-109.49
-94.87
-92.41
-98.94
-109.61
-120.40
-129.41
-136.48
-142.12
-146.65
-149.68
-150.08
-146.09
-135.76
-117.76
-92.39
-61.92
-29.97
0.04
26.35
49.26
70.08
89.04
103.63
108.85
98.94
69.67
19.94
-47.84
-128.35
-214.27
-297.09
-368.09
-419.82
-447.84
-452.00
-436.47
-408.09
-373.97
-339.14
-305.72
-273.48
-241.35
-208.63
-175.39
-142.03
-108.61
-74.70
-39.61
-3.03
34.72
72.82
110.51
147.85
185.73
225.15
266.09
306.55
342.47
369.05
382.55
381.99
369.57
349.72
327.13
305.11
284.84
265.82
246.96
227.59
207.81
188.36
170.06
153.56
139.17
126.94
116.71
108.10
100.63
93.80
87.33
81.25
75.86
71.48
68.22
65.81
63.72
61.31
58.16
54.14
49.48
44.57
39.85
35.60
31.97
28.92
26.31
23.95
21.69
19.47
17.21
14.80
11.83
7.58
1.13
-8.34
-21.10
-36.54
-53.09
-68.36
-79.66
-84.61
-81.73
-71.03
-54.25
-34.70
-16.46
-3.30
2.49
0.66
-7.17
-18.43
-30.62
-42.04
-51.87
-59.73
-65.05
-66.89
-64.14
-56.11
-43.10
-26.49
-8.45
8.70
23.04
33.50
39.88
42.74
43.07
41.93
40.19
38.39
36.79
35.57
34.97
35.37
37.12
40.32
44.65
49.35
53.49
56.35
57.77
58.17
58.36
59.12
60.89
63.63
66.84
69.87
72.13
73.28
73.20
71.76
68.51
62.55
52.38
36.24
12.60
-19.06
-57.58
-99.71
-140.25
-173.03
-192.41
-195.07
-181.25
-155.14
-123.91
-95.68
-77.14
-71.55
-77.99
-92.00
-107.17
-117.29
-118.04
-108.21
-89.99
-68.16
-48.61
-36.06
-32.24
-34.95
-38.95
-38.35
-29.54
-13.03
6.74
23.63
32.86
33.18
26.95
18.39
11.24
7.10
5.39
4.57
3.46
2.08
1.21
1.45
2.36
2.28
-1.00
-9.14
-22.30
-38.92
-56.19
-71.16
-81.78
-87.45
-89.08
-88.40
-87.25
-86.87
-87.52
-88.34
-87.59
-83.05
-72.76
-55.75
-32.50
-4.90
24.33
52.54
77.88
99.51
117.30
131.35
141.53
147.48
148.78
145.29
137.33
125.64
111.23
95.27
78.99
63.60
50.21
39.69
32.52
28.68
27.61
28.36
29.83
31.03
31.31
30.38
28.26
25.15
21.35
17.19
13.08
9.34
6.21
3.73
1.84
0.48
-0.26
-0.11
1.16
3.61
6.88
10.28
12.98
14.29
13.88
11.75
8.22
3.70
-1.28
-6.15
-10.31
-13.18
-14.33
-13.60
-11.08
-7.15
-2.39
2.54
6.99
10.48
12.76
13.93
14.29
14.19
13.84
13.21
12.09
10.31
7.88
5.09
2.42
0.38
-0.67
-0.48
1.08
3.95
7.84
12.12
15.86
18.09
18.12
15.83
11.75
6.84
2.19
-1.25
-2.86
-2.38
0.15
4.36
9.64
15.12
19.80
22.74
23.32
21.36
17.28
11.92
6.34
1.43
-2.37
-5.18
-7.49
-9.86
-12.48
-15.12
-17.17
-18.01
-17.33
-15.27
-12.37
-9.29
-6.59
-4.60
-3.46
-3.15
-3.62
-4.73
-6.31
-8.08
-9.70
-10.89
-11.48
-11.40
-10.66
-9.39
-7.71
-5.86
-4.13
-2.93
-2.64
-3.56
-5.76
-9.01
-12.86
-16.74
-20.13
-22.74
-24.54
-25.73
-26.65
-27.64
-28.93
-30.60
-32.61
-34.86
-37.35
-40.19
-43.59
-47.76
-52.71
-58.18
-63.68
-68.64
-72.66
-75.63
-77.78
-79.58
-81.50
-83.90
-86.93
-90.58
-94.71
-99.09
-103.45
-107.43
-110.64
-112.69
-113.24
-111.92
-108.32
-101.94
-92.31
-79.07
-62.12
-41.80
-18.86
5.55
30.06
53.27
73.91
91.04
104.07
112.88
117.78
119.46
118.78
116.71
113.98
111.04
107.99
104.71
101.04
96.98
92.71
88.52
84.66
81.25
78.22
75.41
72.63
69.72
66.59
63.17
59.44
55.41
51.10
46.58
41.89
37.12
32.28
27.46
22.68
17.98
13.29
8.55
3.73
-1.06
-5.62
-9.62
-12.77
-14.86
-15.82
-15.65
-14.45
-12.34
-9.57
-6.50
-3.63
-1.54
-0.67
-1.22
-3.02
-5.60
-8.33
-10.63
-12.09
-12.54
-11.98
-10.47
-8.14
-5.22
-2.08
0.73
2.77
3.85
4.24
4.51
5.29
6.89
9.17
11.67
13.90
15.67
17.19
18.84
20.92
23.33
25.59
27.04
27.19
25.96
23.71
21.02
18.39
15.99
13.63
10.96
7.75
4.14
0.65
-2.02
-3.33
-3.12
-1.68
0.42
2.56
4.37
5.78
6.99
8.23
9.71
11.39
13.07
14.49
15.45
15.96
16.21
16.44
16.83
17.32
17.64
17.37
16.08
13.46
9.41
4.12
-1.99
-8.31
-14.29
-19.57
-24.19
-28.56
-33.23
-38.55
-44.37
-49.95
-54.22
-56.15
-55.25
-51.77
-46.62
-41.06
-36.17
-32.62
-30.32
-28.63
-26.60
-23.36
-18.40
-11.79
-4.17
3.37
9.56
13.30
14.09
12.27
9.20
7.11
8.55
15.69
29.39
48.58
70.15
89.66
102.55
105.57
97.70
80.13
55.34
25.81
-6.74
-41.10
-75.59
-107.13
-131.44
-144.57
-144.88
-134.42
-118.36
-102.92
-92.70
-89.14
-90.76
-94.92
-99.82
-105.37
-112.48
-121.49
-130.72
-136.62
-135.19
-124.02
-103.63
-77.55
-50.85
-28.11
-11.73
-1.29
5.70
12.45
21.26
32.71
45.63
57.94
67.73
73.90
76.37
75.72
72.81
68.58
64.32
61.91
63.92
73.00
90.90
117.27
148.92
179.94
202.80
210.36
198.04
165.51
117.26
61.86
9.74
-29.53
-49.87
-50.14
-34.11
-9.14
15.95
33.03
36.42
23.78
-3.73
-41.97
-84.79
-125.36
-157.46
-176.64
-180.96
-171.05
-149.65
-120.69
-88.23
-55.82
-26.34
-2.12
14.98
23.65
23.60
15.92
3.19
-11.08
-23.31
-30.78
-32.19
-27.64
-18.36
-6.32
6.19
16.89
23.86
25.97
23.12
16.14
6.44
-4.60
-15.86
-26.54
-35.90
-43.14
-47.53
-48.61
-46.56
-42.20
-36.93
-32.35
-29.90
-30.66
-35.15
-43.17
-53.75
-65.08
-74.73
-80.15
-79.24
-71.06
-56.32
-37.35
-17.83
-1.85
7.22
7.82
0.77
-10.90
-23.02
-31.61
-34.22
-30.58
-22.27
-11.86
-1.79
6.34
11.94
15.13
16.41
16.55
16.75
18.69
24.27
34.85
50.45
69.18
87.60
101.90
109.39
109.55
104.06
95.78
87.38
80.25
74.33
68.64
62.19
54.47
45.60
35.93
25.84
15.66
5.91
-2.68
-9.43
-14.08
-17.18
-19.87
-23.28
-27.80
-32.73
-36.58
-38.02
-36.66
-33.33
-29.67
-27.21
-26.67
-27.82
-29.95
-32.64
-36.13
-41.19
-48.47
-57.77
-67.82
-76.70
-82.65
-85.02
-84.60
-83.38
-83.55
-86.63
-92.75
-100.70
-108.52
-114.28
-116.68
-115.23
-110.14
-101.90
-91.20
-78.84
-65.87
-53.60
-43.33
-35.98
-31.85
-30.52
-30.93
-31.79
-31.81
-30.14
-26.58
-21.57
-16.03
-10.86
-6.43
-2.19
3.21
11.47
23.83
40.39
59.83
79.72
97.31
110.51
118.47
121.75
121.89
120.62
119.26
118.40
118.00
117.89
118.13
119.06
121.03
123.96
127.12
129.35
129.53
127.09
122.26
115.83
108.77
101.73
94.81
87.73
80.09
71.77
63.06
54.65
47.42
42.20
39.52
39.47
41.62
45.11
48.74
51.22
51.40
48.50
42.30
33.16
21.98
10.06
-1.18
-10.50
-17.06
-20.60
-21.40
-20.16
-17.77
-15.01
-12.46
-10.30
-8.48
-6.73
-4.77
-2.42
0.36
3.44
6.46
9.03
10.77
11.52
11.39
10.83
10.39
10.49
11.27
12.46
13.63
14.34
14.49
14.26
14.05
14.21
14.82
15.72
16.68
17.56
18.46
19.72
21.75
24.93
29.43
35.24
42.07
49.31
56.08
61.21
63.43
61.66
55.31
44.62
30.65
15.14
-0.00
-13.19
-23.56
-31.10
-36.42
-40.44
-43.98
-47.51
-51.04
-54.24
-56.55
-57.41
-56.46
-53.73
-49.73
-45.46
-42.15
-40.90
-42.31
-46.24
-51.88
-58.01
-63.37
-66.96
-68.20
-66.99
-63.65
-58.76
-53.07
-47.30
-41.96
-37.11
-32.44
-27.38
-21.44
-14.59
-7.40
-0.89
3.80
5.84
5.09
2.11
-2.01
-5.97
-8.57
-8.97
-6.86
-2.53
3.11
8.72
12.84
14.31
12.72
8.64
3.47
-0.94
-2.89
-1.39
3.66
11.50
20.85
30.35
38.87
45.75
50.73
53.87
55.45
55.82
55.35
54.26
52.64
50.40
47.26
42.92
37.11
29.71
20.81
10.70
-0.14
-11.11
-21.54
-30.77
-38.23
-43.50
-46.38
-46.98
-45.71
-43.31
-40.62
-38.46
-37.42
-37.74
-39.38
-42.13
-45.76
-50.15
-55.20
-60.77
-66.48
-71.70
-75.63
-77.46
-76.60
-72.83
-66.26
-57.27
-46.34
-33.98
-20.76
-7.36
5.43
16.83
26.20
33.23
37.89
40.27
40.43
38.45
34.60
29.63
24.85
21.93
22.32
26.72
34.79
45.23
56.33
66.44
74.42
79.61
81.70
80.51
76.02
68.56
58.97
48.69
39.41
32.58
28.89
27.97
28.51
28.72
26.98
22.41
15.14
6.20
-2.87
-10.53
-15.80
-18.44
-18.89
-18.00
-16.57
-15.08
-13.64
-12.16
-10.58
-9.10
-8.01
-7.56
-7.69
-8.01
-7.84
-6.54
-3.79
0.37
5.47
10.88
15.98
20.25
23.39
25.23
25.82
25.38
24.33
23.21
22.43
22.08
21.79
20.79
18.12
13.01
5.07
-5.47
-17.82
-30.75
-42.87
-52.92
-59.96
-63.60
-63.99
-61.71
-57.62
-52.61
-47.60
-43.36
-40.60
-39.75
-40.84
-43.35
-46.27
-48.29
-48.27
-45.58
-40.44
-33.84
-27.23
-22.08
-19.40
-19.46
-21.78
-25.38
-29.12
-32.09
-33.83
-34.31
-33.81
-32.69
-31.20
-29.42
-27.30
-24.72
-21.61
-18.01
-14.20
-10.60
-7.77
-6.14
-5.81
-6.39
-7.01
-6.59
-4.25
0.38
6.96
14.71
22.68
30.12
36.64
42.08
46.42
49.68
51.95
53.47
54.76
56.45
59.11
63.05
68.22
74.28
80.67
86.77
91.88
95.30
96.31
94.27
88.65
79.10
65.43
47.66
26.10
1.41
-25.25
-52.29
-77.88
-100.27
-118.16
-130.97
-138.98
-143.16
-144.81
-145.15
-145.09
-145.00
-144.90
-144.64
-144.06
-143.11
-141.74
-139.85
-137.14
-133.06
-126.87
-117.77
-105.25
-89.20
-70.16
-49.21
-27.78
-7.23
11.42
27.60
41.08
51.77
59.56
64.37
66.37
66.15
64.66
62.99
62.01
62.10
63.14
64.63
66.04
66.88
66.90
65.91
63.78
60.41
55.74
49.90
43.18
35.97
28.72
21.73
15.15
8.94
2.97
-2.95
-8.95
-15.08
-21.28
-27.35
-33.00
-37.88
-41.67
-44.22
-45.62
-46.23
-46.58
-47.16
-48.31
-50.14
-52.53
-55.24
-58.06
-60.91
-63.89
-67.27
-71.43
-76.61
-82.70
-88.89
-93.49
-94.06
-87.93
-73.11
-49.28
-18.34
15.78
48.11
74.15
91.10
98.52
97.94
92.02
83.36
73.91
64.88
56.96
50.72
46.59
44.75
44.94
46.43
48.23
49.40
49.32
47.77
44.95
41.28
37.32
33.60
30.50
28.15
26.41
25.04
23.84
22.81
22.11
21.86
22.01
22.16
21.69
20.08
17.17
13.31
9.27
5.91
3.81
3.08
3.35
4.00
4.38
4.13
3.08
1.29
-1.12
-4.01
-7.14
-10.25
-12.98
-15.03
-16.27
-16.80
-16.80
-16.41
-15.61
-14.23
-12.10
-9.21
-5.76
-2.13
1.32
4.33
6.84
8.88
10.53
11.86
12.95
13.81
14.41
14.61
14.23
13.10
11.25
8.89
6.42
4.20
2.48
1.29
0.51
0.07
-0.04
0.24
0.84
1.59
2.18
2.38
2.24
2.03
2.11
2.65
3.48
4.19
4.35
3.80
2.75
1.64
0.94
0.87
1.42
2.34
3.30
4.01
4.31
4.09
3.39
2.28
0.97
-0.33
-1.46
-2.33
-2.96
-3.42
-3.77
-4.08
-4.41
-4.87
-5.56
-6.51
-7.53
-8.21
-8.04
-6.50
-3.24
1.83
8.61
16.78
25.88
35.34
44.47
52.57
59.00
63.40
65.76
66.39
65.77
64.30
62.19
59.38
55.73
51.08
45.45
39.01
32.05
24.84
17.56
10.38
3.44
-2.99
-8.60
-13.18
-16.67
-19.24
-21.28
-23.17
-25.14
-27.16
-28.97
-30.27
-30.86
-30.79
-30.34
-29.93
-29.91
-30.42
-31.28
-32.02
-32.01
-30.64
-27.57
-22.82
-16.81
-10.27
-3.99
1.42
5.73
9.16
12.22
15.42
19.06
22.99
26.74
29.71
31.46
31.88
31.18
29.82
28.29
26.97
26.06
25.55
25.29
25.03
24.49
23.44
21.70
19.23
16.10
12.47
8.61
4.85
1.60
-0.72
-1.76
-1.40
0.21
2.67
5.51
8.28
10.63
12.21
12.65
11.53
8.55
3.76
-2.43
-9.38
-16.54
-23.79
-31.44
-39.91
-49.30
-59.06
-68.05
-74.91
-78.58
-78.69
-75.65
-70.56
-64.92
-60.21
-57.48
-57.10
-58.55
-60.67
-62.04
-61.40
-58.07
-52.07
-44.06
-35.03
-26.11
-18.34
-12.45
-8.75
-7.13
-7.22
-8.52
-10.74
-13.76
-17.54
-21.93
-26.53
-30.70
-33.76
-35.13
-34.54
-32.06
-28.03
-23.04
-17.77
-12.78
-8.36
-4.39
-0.31
4.70
11.43
20.36
31.48
44.30
57.96
71.42
83.61
93.63
100.90
105.17
106.60
105.57
102.51
97.83
91.78
84.60
76.66
68.48
60.69
53.77
47.89
42.84
38.23
33.74
29.33
25.23
21.74
18.95
16.61
14.26
11.46
8.04
4.21
0.44
-2.77
-5.15
-6.71
-7.71
-8.47
-9.20
-9.90
-10.48
-10.87
-11.13
-11.48
-12.12
-13.08
-14.14
-14.92
-15.09
-14.63
-13.86
-13.34
-13.57
-14.76
-16.85
-19.50
-22.30
-24.79
-26.46
-26.73
-25.03
-21.04
-14.86
-7.13
1.12
8.79
15.00
19.37
21.89
22.76
22.19
20.30
17.14
12.81
7.52
1.63
-4.46
-10.31
-15.58
-19.91
-22.97
-24.52
-24.48
-23.03
-20.62
-17.91
-15.61
-14.23
-13.97
-14.73
-16.18
-17.86
-19.29
-20.07
-19.85
-18.43
-15.83
-12.21
-7.95
-3.48
0.80
4.60
7.85
10.58
12.89
14.86
16.53
17.91
18.98
19.71
19.94
19.38
17.63
14.28
9.11
2.21
-5.95
-14.58
-22.83
-30.02
-35.73
-39.88
-42.56
-43.89
-43.98
-42.97
-41.09
-38.78
-36.60
-35.07
-34.52
-34.86
-35.70
-36.45
-36.56
-35.73
-33.93
-31.35
-28.28
-24.94
-21.42
-17.72
-13.83
-9.80
-5.85
-2.28
0.55
2.36
3.02
2.55
1.18
-0.64
-2.29
-3.04
-2.22
0.59
5.43
11.79
18.78
25.25
30.11
32.54
32.11
28.81
23.02
15.35
6.60
-2.40
-10.89
-18.30
-24.33
-29.00
-32.53
-35.13
-36.90
-37.72
-37.35
-35.67
-32.92
-29.79
-27.35
-26.69
-28.48
-32.66
-38.35
-44.15
-48.50
-50.10
-48.25
-42.91
-34.59
-24.15
-12.51
-0.51
11.10
21.81
31.23
39.17
45.57
50.48
53.89
55.61
55.24
52.25
46.26
37.36
26.27
14.35
3.15
-5.99
-12.33
-15.85
-17.12
-17.03
-16.58
-16.60
-17.53
-19.32
-21.36
-22.57
-21.76
-18.02
-11.24
-2.23
7.49
16.15
22.34
25.37
25.33
22.92
19.13
14.98
11.32
8.84
7.90
8.53
10.37
12.67
14.54
15.17
14.16
11.69
8.42
5.30
3.12
2.39
3.15
5.15
7.94
10.98
13.76
15.79
16.78
16.66
15.73
14.51
13.52
13.02
12.88
12.72
12.10
10.77
8.76
6.28
3.65
1.23
-0.67
-1.78
-1.99
-1.37
-0.22
1.03
1.96
2.37
2.18
1.45
0.20
-1.46
-3.35
-5.07
-6.06
-5.86
-4.33
-1.79
1.07
3.52
5.06
5.60
5.46
5.16
5.23
5.96
7.38
9.29
11.34
13.23
14.72
15.74
16.34
16.61
16.58
16.20
15.36
13.91
11.75
8.94
5.69
2.40
-0.47
-2.51
-3.51
-3.60
-3.16
-2.71
-2.58
-2.87
-3.40
-3.82
-3.90
-3.57
-2.91
-1.99
-0.82
0.75
2.80
5.28
7.90
10.20
11.78
12.49
12.54
12.41
12.71
13.89
16.07
19.00
22.06
24.54
25.88
25.88
24.75
22.96
21.01
19.22
17.64
16.13
14.52
12.76
10.98
9.49
8.67
8.95
10.68
14.09
19.11
25.22
31.54
36.92
40.39
41.46
40.29
37.64
34.42
31.39
28.81
26.48
23.83
20.29
15.40
8.99
1.15
-7.82
-17.45
-27.13
-36.28
-44.38
-51.11
-56.33
-60.04
-62.34
-63.38
-63.39
-62.68
-61.68
-60.91
-60.93
-62.20
-65.01
-69.39
-75.13
-81.82
-88.90
-95.86
-102.24
-107.63
-111.59
-113.58
-112.99
-109.33
-102.39
-92.26
-79.25
-63.73
-46.07
-26.77
-6.66
12.96
30.52
44.62
54.68
61.19
65.52
69.30
73.63
78.66
83.64
87.42
89.10
88.43
85.80
82.04
77.92
73.96
70.26
66.72
63.19
59.68
56.31
53.27
50.63
48.26
45.81
42.86
39.07
34.28
28.55
22.14
15.42
8.76
2.49
-3.14
-8.00
-12.11
-15.63
-18.84
-22.09
-25.67
-29.70
-34.09
-38.48
-42.33
-45.04
-46.10
-45.28
-42.76
-39.04
-34.87
-30.96
-27.78
-25.43
-23.69
-22.20
-20.76
-19.49
-18.92
-19.78
-22.64
-27.47
-33.38
-38.77
-41.81
-41.16
-36.55
-28.88
-19.95
-11.71
-5.58
-1.98
-0.37
0.49
2.02
5.42
11.54
20.73
32.91
47.54
63.62
79.77
94.38
105.91
113.45
117.10
118.10
118.52
120.42
124.84
131.14
137.17
140.04
137.26
127.69
111.92
91.95
70.57
50.75
35.15
25.83
23.85
29.10
40.12
54.42
69.06
81.71
91.18
97.58
101.91
105.14
107.32
107.22
102.86
92.87
77.91
61.30
48.38
44.50
52.62
71.93
97.98
124.33
144.87
155.38
153.87
139.77
113.32
76.01
31.55
-13.90
-53.07
-80.17
-93.25
-94.80
-90.00
-83.79
-78.68
-74.04
-67.77
-58.35
-46.25
-33.58
-22.68
-14.70
-9.37
-5.84
-3.76
-3.75
-6.84
-13.45
-22.84
-33.19
-42.21
-48.04
-49.83
-48.02
-43.94
-39.38
-36.03
-35.14
-37.40
-42.97
-51.53
-62.35
-74.32
-86.10
-96.35
-104.03
-108.64
-110.12
-108.72
-104.69
-98.22
-89.34
-78.09
-64.64
-49.48
-33.42
-17.67
-3.82
6.25
10.68
8.39
-0.25
-13.15
-27.16
-39.45
-48.76
-56.02
-63.57
-73.71
-87.15
-102.57
-117.18
-128.14
-133.61
-133.27
-127.93
-119.03
-108.37
-98.28
-91.53
-90.76
-97.26
-109.86
-124.65
-136.03
-138.95
-131.05
-113.80
-91.76
-70.51
-54.19
-43.94
-37.97
-33.06
-26.62
-18.05
-8.85
-1.64
1.20
-1.41
-9.03
-19.93
-31.61
-41.40
-46.95
-46.82
-41.00
-31.10
-19.93
-10.59
-5.41
-5.30
-9.64
-16.97
-25.73
-34.97
-44.58
-55.13
-67.40
-81.74
-97.36
-111.76
-121.01
-120.58
-107.09
-79.98
-42.35
-0.34
38.86
69.45
88.74
97.44
98.44
95.01
89.31
82.01
72.79
61.29
47.78
33.43
20.07
9.96
5.59
9.27
22.60
45.63
76.43
111.30
145.61
174.93
195.98
206.84
206.89
196.95
179.44
158.55
139.70
127.90
125.50
130.78
138.17
140.63
132.94
114.00
86.96
57.38
30.15
7.37
-11.59
-28.27
-43.10
-54.47
-59.94
-58.27
-50.32
-38.93
-27.43
-17.84
-10.06
-2.29
7.90
21.91
39.43
59.42
80.34
100.81
119.58
135.44
147.42
155.59
161.70
166.04
168.22
166.61
159.32
145.26
124.91
100.43
75.93
54.80
38.51
27.10
18.13
8.21
-5.35
-23.35
-44.33
-64.07
-80.14
-92.63
-103.37
-116.83
-138.62
-173.71
-225.52
-295.18
-379.09
-472.83
-570.05
-652.03
-699.97
-701.11
-654.31
-571.30
-484.13
-407.30
-345.26
-296.52
-257.22
-222.10
-190.64
-164.12
-143.55
-128.05
-112.84
-94.93
-73.34
-48.86
-24.56
-4.64
7.97
12.58
10.91
7.83
6.54
8.41
13.25
19.09
23.02
22.86
17.82
8.63
-1.92
-12.02
-20.88
-28.52
-35.83
-44.13
-54.11
-65.63
-77.58
-87.80
-94.55
-96.68
-93.64
-85.59
-73.21
-57.34
-38.86
-18.60
2.82
24.47
45.22
63.86
79.25
90.51
97.19
99.43
97.82
93.31
87.00
79.85
72.50
65.21
57.96
50.68
43.45
36.71
31.12
27.32
25.66
25.95
27.52
29.46
31.09
32.34
33.90
36.96
42.71
51.76
63.79
77.75
92.38
106.81
121.11
136.16
153.30
173.67
198.01
226.60
259.39
295.87
334.56
372.34
404.38
424.90
428.73
413.24
379.21
330.49
272.07
208.13
141.05
72.29
4.13
-58.82
-109.89
-142.47
-152.94
-142.59
-117.36
-85.39
-53.71
-25.82
-1.42
21.75
45.27
68.26
87.58
99.65
102.61
97.38
86.93
74.28
60.69
45.32
26.59
4.58
-17.53
-33.94
-38.75
-28.95
-6.11
24.06
54.44
79.55
97.60
110.52
122.62
138.66
161.86
192.42
226.95
258.79
279.65
282.04
261.79
219.48
160.06
90.78
18.94
-49.72
-110.95
-160.89
-195.08
-208.71
-197.86
-161.06
-100.26
-20.74
69.60
161.49
245.48
313.45
360.25
384.66
389.35
379.49
360.65
336.89
309.99
280.20
247.55
212.92
178.02
144.47
112.86
82.47
51.73
19.30
-15.06
-50.31
-84.34
-114.93
-140.61
-161.32
-178.46
-194.33
-210.93
-228.87
-246.78
-261.95
-271.43
-273.57
-268.89
-259.91
-250.16
-243.43
-243.17
-252.05
-271.24
-299.13
-330.27
-355.54
-364.66
-350.88
-315.02
-266.27
-218.66
-184.93
-171.30
-176.03
-192.03
-211.48
-229.27
-243.44
-253.26
-257.12
-252.29
-236.56
-210.28
-176.82
-141.02
-106.97
-76.22
-48.09
-21.27
4.70
29.23
51.34
70.71
88.03
104.88
123.59
146.51
175.51
210.93
250.14
286.83
311.70
315.50
293.15
246.84
186.05
124.05
72.35
36.15
13.30
-3.02
-19.28
-37.59
-54.92
-65.53
-64.53
-50.64
-26.42
3.28
33.45
60.07
80.45
92.98
97.01
93.18
84.05
74.27
69.70
75.05
91.85
117.43
145.54
168.58
179.84
175.23
153.93
118.41
73.62
26.09
-17.42
-51.61
-74.07
-86.24
-92.81
-99.52
-110.40
-125.63
-141.02
-149.85
-145.88
-126.23
-92.42
-49.98
-6.92
29.09
52.59
61.80
58.92
49.29
39.67
35.95
41.18
54.70
72.77
90.37
103.31
109.47
108.65
101.62
89.06
71.23
48.83
23.81
-0.43
-20.09
-32.64
-37.92
-37.64
-33.82
-27.13
-16.58
-1.11
18.29
37.59
50.74
52.11
39.92
17.08
-9.74
-33.15
-48.25
-54.08
-52.66
-46.48
-36.24
-20.46
2.67
32.46
64.12
89.66
101.23
95.05
73.55
44.51
17.57
0.07
-5.84
-2.85
3.87
9.66
12.48
13.07
13.53
15.75
20.54
27.59
36.12
45.10
53.04
57.27
54.00
39.67
12.96
-23.37
-62.49
-95.56
-115.05
-117.51
-104.59
-81.67
-54.80
-27.97
-1.96
24.45
51.86
78.33
99.35
110.13
108.68
97.74
84.16
75.33
74.94
80.63
84.82
78.91
58.05
23.78
-17.20
-56.67
-88.87
-111.88
-126.50
-133.85
-134.20
-127.61
-115.35
-100.56
-86.92
-76.44
-68.04
-58.22
-43.65
-23.72
-1.27
19.25
34.87
46.37
57.88
74.15
97.01
123.33
145.63
155.14
145.65
116.24
71.91
21.57
-25.00
-60.26
-80.60
-86.45
-81.21
-69.70
-57.27
-49.43
-51.72
-68.63
-101.84
-148.28
-199.49
-243.14
-267.00
-263.34
-231.81
-179.33
-116.87
-54.65
1.27
50.09
94.39
136.74
176.80
210.83
233.29
240.00
230.68
209.35
182.82
157.92
139.49
129.39
127.11
130.64
137.08
142.63
142.77
133.39
112.63
82.48
49.10
20.78
4.63
3.43
14.55
31.55
47.62
58.61
64.23
66.95
69.61
73.41
77.56
80.19
80.12
78.01
75.90
75.86
78.38
81.58
81.77
75.02
58.84
33.41
1.59
-32.23
-63.51
-88.91
-107.22
-119.27
-127.62
-135.97
-148.53
-169.13
-200.14
-241.03
-287.74
-333.17
-369.31
-390.18
-394.13
-384.21
-366.34
-346.31
-327.21
-308.75
-288.52
-264.27
-235.58
-204.05
-172.01
-140.85
-110.17
-77.99
-41.96
-0.63
46.11
97.21
151.18
206.48
261.31
313.09
358.24
392.70
413.43
420.03
415.39
404.74
393.43
384.57
377.82
370.18
357.94
338.87
313.20
283.20
251.89
221.84
194.73
171.67
153.79
142.27
138.03
140.96
149.42
160.56
171.16
178.76
182.24
181.97
179.21
175.19
170.38
164.24
155.64
143.52
127.71
109.16
89.64
70.89
53.69
37.41
20.23
-0.03
-24.81
-54.06
-86.31
-119.31
-151.13
-181.08
-209.98
-239.85
-273.30
-312.81
-359.91
-414.25
-472.72
-529.24
-575.76
-604.46
-610.45
-593.63
-558.54
-512.41
-462.09
-411.78
-362.40
-312.80
-261.93
-210.52
-161.45
-118.56
-84.71
-60.26
-42.70
-27.73
-11.09
9.48
33.07
56.01
73.48
81.83
80.33
71.67
60.81
52.99
51.79
57.90
69.16
81.57
90.77
93.61
89.30
79.52
67.65
57.19
50.29
46.72
44.24
39.82
31.27
18.51
3.64
-10.01
-19.36
-22.95
-21.25
-16.36
-10.89
-6.94
-5.33
-5.51
-6.02
-5.39
-3.12
0.04
2.43
2.68
0.80
-1.27
-0.42
6.01
18.56
34.87
50.39
60.07
60.46
51.13
34.93
16.94
2.53
-4.57
-3.60
3.08
11.29
17.06
18.70
17.50
16.84
19.92
27.79
38.53
48.46
54.13
54.20
49.76
43.36
37.40
33.18
30.77
29.63
29.15
28.74
27.81
25.53
21.20
14.79
7.36
0.94
-2.18
-0.52
5.84
15.14
24.67
31.90
35.60
36.28
35.66
35.67
37.36
40.42
43.65
46.14
48.09
50.69
54.73
58.94
59.42
50.89
29.55
-4.21
-44.87
-83.54
-111.44
-123.14
-117.93
-99.01
-71.48
-40.68
-11.58
11.04
22.95
21.85
9.06
-9.83
-26.75
-34.74
-31.21
-19.04
-4.50
6.37
10.93
10.64
9.25
10.24
14.89
22.11
29.41
34.39
35.58
32.81
27.04
20.32
15.43
15.14
21.17
33.35
49.78
67.83
85.43
101.63
115.99
127.43
133.41
130.35
115.11
86.62
46.37
-2.33
-55.69
-110.23
-162.66
-209.24
-245.69
-268.09
-274.65
-266.86
-249.04
-226.34
-202.23
-177.02
-148.34
-113.19
-70.10
-20.50
31.68
81.27
123.25
153.76
170.73
174.38
167.60
155.84
145.74
142.79
148.99
161.38
172.61
173.79
158.08
123.88
75.88
23.76
-21.22
-50.07
-59.23
-51.57
-35.19
-20.44
-16.25
-27.17
-51.95
-84.21
-114.94
-135.97
-143.00
-136.97
-123.12
-108.26
-97.53
-92.47
-91.14
-89.95
-86.34
-80.64
-76.02
-76.76
-85.60
-101.61
-119.82
-132.84
-133.98
-120.19
-93.63
-60.55
-28.26
-1.38
20.21
40.52
64.23
92.98
123.66
149.84
165.60
169.21
164.40
158.26
157.16
163.05
172.31
177.94
173.80
158.43
136.23
115.27
102.98
101.93
108.24
113.39
108.59
89.31
57.47
20.06
-14.66
-40.95
-57.29
-65.42
-67.70
-64.91
-56.11
-40.38
-18.99
3.92
22.71
32.83
32.99
25.29
13.61
1.14
-11.23
-24.96
-42.47
-65.91
-96.62
-135.29
-181.97
-235.28
-291.44
-343.89
-384.54
-406.60
-407.54
-390.44
-362.68
-332.75
-306.76
-286.65
-270.57
-254.99
-237.11
-216.02
-192.47
-167.51
-141.49
-113.65
-82.56
-47.04
-6.68
37.91
85.68
135.57
186.60
237.49
286.26
330.14
366.01
391.25
404.41
405.60
396.48
379.98
359.79
339.70
322.71
310.22
301.67
294.84
286.83
275.06
257.96
234.93
205.84
170.83
130.59
87.16
44.09
5.63
-25.00
-47.40
-64.68
-82.15
-104.63
-133.64
-166.29
-196.47
-218.02
-227.95
-228.15
-224.42
-223.34
-228.64
-239.16
-249.74
-254.36
-249.77
-237.45
-222.72
-211.65
-207.50
-208.99
-211.26
-208.67
-197.84
-179.06
-155.52
-131.10
-108.13
-86.79
-65.90
-44.40
-22.19
0.06
21.94
44.12
68.12
95.47
126.36
159.04
190.23
216.40
235.00
245.15
247.54
243.71
235.57
224.58
211.56
196.85
180.54
162.83
144.17
125.32
107.15
91.07
78.13
68.89
63.38
61.36
62.41
66.02
71.54
78.06
85.83
95.04
105.79
118.03
131.39
145.26
159.00
172.20
184.61
198.30
214.98
235.61
259.87
286.27
312.68
337.20
358.66
376.77
394.71
415.87
442.86
476.61
515.80
557.35
597.57
633.59
646.14
622.07
554.21
444.03
301.97
144.06
-13.34
-157.76
-282.14
-384.23
-462.23
-516.38
-548.40
-561.25
-559.01
-546.41
-528.12
-508.07
-489.19
-471.09
-452.59
-432.29
-409.39
-384.13
-357.70
-331.69
-307.49
-286.08
-266.56
-247.96
-229.59
-211.43
-194.16
-178.71
-165.64
-154.86
-145.61
-136.36
-126.05
-114.50
-102.45
-91.05
-81.15
-72.62
-64.48
-55.53
-45.11
-33.89
-23.59
-16.25
-13.14
-14.12
-17.62
-21.34
-23.12
-21.78
-17.38
-10.91
-3.68
3.15
8.83
12.97
15.39
16.15
15.61
14.31
13.09
12.89
14.32
17.35
21.36
25.34
28.34
29.87
29.66
27.85
24.71
20.45
15.27
9.28
2.52
-4.92
-12.76
-20.55
-27.60
-33.08
-36.48
-37.63
-36.75
-34.34
-30.87
-26.61
-21.73
-16.48
-11.28
-6.73
-3.29
-1.02
0.39
1.41
2.36
3.18
3.56
3.13
1.78
-0.26
-2.47
-4.27
-5.19
-4.96
-3.51
-1.06
1.92
4.65
6.36
6.51
5.00
2.27
-1.04
-4.37
-7.54
-10.70
-14.13
-17.78
-21.19
-23.56
-24.02
-22.02
-17.53
-11.31
-4.66
0.80
3.61
3.02
-0.65
-6.18
-12.04
-16.69
-19.83
-22.35
-25.90
-31.81
-40.05
-48.86
-55.41
-57.23
-53.66
-46.62
-40.00
-38.27
-44.79
-60.43
-83.12
-108.31
-130.02
-142.52
-142.10
-128.39
-104.71
-77.14
-52.11
-33.84
-22.48
-13.96
-1.76
20.49
56.29
104.49
159.08
210.59
248.42
263.83
252.54
216.02
161.13
97.65
34.66
-22.76
-74.78
-125.20
-177.79
-232.64
-284.83
-326.03
-348.44
-348.56
-328.73
-295.76
-257.43
-219.06
-181.90
-144.37
-104.42
-61.67
-17.80
24.97
65.83
106.37
149.88
198.98
253.31
308.67
358.11
394.65
414.34
417.70
409.25
395.16
380.35
366.62
352.39
334.14
308.49
273.88
231.28
183.95
136.51
93.98
60.70
39.61
31.50
34.92
46.50
61.76
76.18
86.22
89.94
87.03
78.60
66.64
53.38
40.93
30.79
23.66
19.29
16.60
14.17
10.83
6.14
0.57
-4.86
-9.15
-11.97
-13.82
-15.82
-18.99
-23.67
-29.33
-34.83
-39.09
-41.60
-42.66
-43.03
-43.47
-44.41
-45.87
-47.66
-49.65
-51.77
-54.02
-56.36
-58.76
-61.32
-64.36
-68.33
-73.56
-79.95
-86.91
-93.46
-98.71
-102.04
-103.33
-102.67
-100.12
-95.63
-89.07
-80.62
-70.91
-61.00
-52.01
-44.75
-39.45
-35.74
-33.01
-30.66
-28.42
-26.38
-24.86
-24.23
-24.75
-26.55
-29.55
-33.55
-38.14
-42.74
-46.68
-49.24
-49.79
-47.91
-43.48
-36.73
-28.25
-18.93
-9.80
-1.81
4.35
8.33
10.17
10.12
8.64
6.26
3.64
1.56
0.78
1.88
5.07
10.08
16.27
22.96
29.58
35.96
42.14
48.19
53.94
58.85
62.13
63.02
61.14
56.65
50.23
42.85
35.40
28.43
22.12
16.42
11.33
7.04
3.88
2.05
1.31
0.80
-0.74
-4.45
-10.71
-18.82
-27.08
-33.42
-36.27
-35.24
-31.27
-26.24
-22.18
-20.41
-20.99
-22.80
-23.90
-22.38
-17.02
-7.74
4.29
16.86
27.36
33.53
34.19
29.86
22.91
17.08
16.33
23.13
37.00
53.91
67.28
70.24
58.35
31.50
-5.95
-46.75
-83.23
-109.55
-123.08
-124.52
-117.25
-106.19
-96.38
-91.70
-93.68
-101.17
-110.76
-118.17
-119.82
-113.99
-101.08
-83.01
-62.39
-41.68
-22.93
-7.66
3.15
9.23
11.14
10.24
8.28
6.84
6.87
8.34
10.40
11.73
11.22
8.59
4.67
1.11
-0.43
0.85
4.21
7.61
8.54
5.30
-2.08
-11.65
-20.28
-24.96
-23.99
-17.74
-8.40
0.85
7.08
8.63
5.45
-1.15
-9.28
-17.31
-24.35
-30.24
-35.18
-39.24
-42.21
-43.70
-43.62
-42.47
-41.25
-41.01
-42.15
-44.05
-45.39
-44.77
-41.53
-36.15
-29.99
-24.66
-21.35
-20.51
-21.97
-25.26
-29.84
-35.11
-40.23
-44.11
-45.61
-43.87
-38.62
-30.27
-19.66
-7.78
4.42
16.07
26.30
34.30
39.37
41.21
40.01
36.52
31.94
27.64
24.93
24.64
26.79
30.66
34.90
38.13
39.49
39.01
37.63
36.65
37.13
39.38
42.85
46.45
49.05
49.83
48.47
45.00
39.65
32.70
24.53
15.61
6.52
-2.22
-10.24
-17.41
-23.75
-29.35
-34.28
-38.47
-41.76
-43.92
-44.75
-44.29
-42.87
-41.19
-40.03
-39.90
-40.75
-41.91
-42.37
-41.33
-38.59
-34.62
-30.18
-25.85
-21.74
-17.49
-12.74
-7.54
-2.49
1.44
3.34
2.68
-0.50
-5.67
-12.03
-18.59
-24.38
-28.55
-30.45
-29.91
-27.26
-23.27
-18.90
-14.94
-11.67
-8.87
-5.91
-2.28
2.13
6.76
10.61
12.77
12.93
11.68
10.34
10.33
12.49
16.61
21.60
26.15
29.40
31.36
32.70
34.22
36.24
38.51
40.52
42.09
43.52
45.27
47.35
48.82
48.05
43.55
35.04
23.91
12.84
4.62
1.02
2.18
6.88
13.36
20.12
26.24
31.25
34.85
36.79
37.03
36.00
34.52
33.54
33.63
34.68
35.89
36.22
34.96
32.18
28.85
26.53
26.83
30.78
38.41
48.72
60.06
70.69
79.32
85.47
89.28
91.19
91.52
90.16
86.70
80.69
72.03
61.15
48.97
36.63
25.19
15.32
7.22
0.64
-4.95
-10.09
-15.09
-19.92
-24.25
-27.63
-29.85
-31.05
-31.75
-32.60
-34.07
-36.12
-38.32
-40.11
-41.23
-42.00
-43.21
-45.71
-50.00
-55.89
-62.63
-69.10
-74.28
-77.47
-78.46
-77.42
-74.87
-71.60
-68.57
-66.64
-66.37
-67.66
-69.72
-71.35
-71.37
-69.32
-65.76
-62.13
-60.24
-61.60
-66.77
-75.24
-85.57
-95.99
-104.96
-111.80
-116.93
-121.90
-128.97
-140.28
-156.79
-177.21
-197.81
-213.06
-217.16
-206.04
-178.76
-137.84
-88.42
-36.71
11.54
52.10
82.80
103.66
116.87
126.31
136.50
150.99
170.84
193.92
215.72
231.23
237.12
233.08
221.52
206.20
190.29
175.40
161.43
147.48
132.81
117.18
100.62
82.86
63.05
39.84
12.20
-19.74
-54.12
-87.54
-116.09
-136.67
-147.88
-150.21
-145.32
-135.41
-123.09
-111.69
-105.39
-108.64
-124.54
-153.29
-191.60
-233.58
-272.77
-304.11
-324.95
-334.56
-333.12
-320.89
-298.41
-267.08
-229.54
-189.23
-149.03
-110.18
-71.97
-32.69
8.84
52.01
94.15
131.44
160.41
179.30
188.66
190.92
189.22
186.37
184.02
182.69
182.25
182.37
182.80
183.32
183.59
183.02
181.05
177.15
171.32
164.08
156.42
149.33
143.38
138.57
134.38
130.04
124.83
118.55
111.73
105.50
100.98
98.69
97.97
97.05
93.42
84.44
68.82
47.72
24.98
6.06
-3.72
-0.89
15.04
41.25
71.25
97.29
112.68
113.49
98.98
71.63
36.67
0.81
-29.48
-51.93
-67.05
-76.52
-82.07
-85.69
-89.63
-95.63
-103.74
-111.93
-120.07
-127.78
-133.75
-136.49
-136.78
-137.61
-141.79
-149.22
-156.33
-162.80
-170.01
-180.20
-195.50
-218.96
-252.56
-294.65
-339.60
-352.35
-309.23
-211.72
-87.12
32.78
128.44
196.57
243.70
278.63
306.28
325.39
330.94
320.48
297.15
264.58
227.22
189.87
156.24
129.88
107.06
81.69
49.83
11.30
-35.70
-91.85
-155.24
-221.43
-284.29
-339.64
-383.21
-410.08
-393.98
-327.14
-226.79
-124.29
-43.41
9.79
40.67
58.18
69.62
78.37
81.14
75.07
62.25
48.53
40.37
40.83
49.60
64.69
83.82
102.52
118.26
131.60
141.58
147.52
148.23
143.63
136.02
129.30
125.16
123.42
122.17
118.32
109.05
92.39
67.96
36.69
-0.08
-41.78
-87.09
-132.85
-174.32
-206.34
-225.49
-230.88
-224.26
-209.20
-190.22
-171.21
-154.42
-140.11
-126.71
-111.82
-93.24
-69.82
-41.84
-10.55
22.41
55.20
85.81
112.07
132.22
146.13
156.07
166.38
181.41
202.83
228.10
251.36
266.65
271.18
266.93
258.91
251.57
245.65
237.67
222.29
196.11
160.00
118.98
79.55
46.58
21.70
3.59
-10.11
-21.08
-29.57
-35.24
-38.33
-40.36
-43.58
-49.57
-58.09
-67.04
-73.76
-76.78
-76.79
-76.17
-77.17
-80.02
-82.28
-80.20
-71.11
-55.35
-36.42
-19.25
-7.71
-2.94
-3.51
-6.98
-11.58
-16.68
-22.26
-28.14
-33.77
-38.48
-41.81
-43.39
-42.56
-38.03
-28.37
-12.99
6.67
27.01
43.41
52.12
51.94
44.37
32.60
19.87
8.25
-1.79
-10.65
-18.88
-26.35
-31.63
-32.67
-28.07
-18.20
-5.23
7.55
17.06
21.62
21.66
20.19
21.00
26.73
37.71
52.49
68.99
85.49
100.89
114.51
126.94
138.46
148.20
154.31
155.19
150.07
138.98
121.61
97.33
68.10
38.48
14.62
2.01
3.53
17.49
37.84
55.63
52.71
18.54
-42.62
-112.32
-169.48
-201.03
-204.52
-184.87
-151.85
-117.55
-91.98
-81.16
-86.42
-104.05
-124.69
-141.70
-149.89
-147.68
-137.21
-121.05
-100.52
-76.40
-49.65
-21.84
4.77
28.70
49.53
68.89
87.06
107.30
132.12
161.70
194.02
226.17
256.50
284.55
310.23
332.80
350.40
359.00
353.81
331.48
291.52
236.83
172.20
102.83
33.43
-31.63
-89.00
-136.47
-173.19
-199.91
-218.46
-231.11
-239.51
-244.10
-243.86
-237.74
-225.43
-207.95
-187.40
-166.15
-146.09
-128.30
-113.02
-99.87
-88.41
-78.36
-69.60
-62.16
-56.02
-51.04
-47.03
-43.74
-40.87
-38.13
-35.34
-32.46
-29.80
-28.03
-28.20
-31.49
-38.84
-50.59
-66.39
-85.15
-105.22
-124.66
-141.37
-153.38
-159.16
-158.23
-151.51
-141.45
-131.52
-125.13
-124.44
-129.43
-137.96
-146.58
-151.83
-151.61
-145.70
-135.50
-123.20
-110.52
-97.92
-84.30
-67.53
-45.34
-16.37
19.18
59.31
100.71
139.64
172.74
197.74
213.65
220.60
219.44
211.50
198.29
181.53
163.05
144.63
127.79
113.52
102.09
93.02
85.41
78.25
70.87
63.20
55.76
49.27
44.30
41.05
39.33
38.78
39.03
39.71
40.41
40.63
39.81
37.67
34.34
30.44
26.88
24.45
23.49
23.76
24.54
24.91
24.06
21.51
17.19
11.31
4.34
-3.21
-10.90
-18.37
-25.41
-31.86
-37.67
-42.90
-47.73
-52.38
-56.98
-61.41
-65.19
-67.62
-68.03
-65.95
-61.34
-54.63
-46.64
-38.34
-30.64
-24.18
-19.14
-15.26
-11.92
-8.30
-3.63
2.72
10.99
21.05
32.35
43.98
54.79
63.46
68.70
69.39
64.87
55.42
42.36
28.04
15.12
5.73
0.65
-0.78
-0.13
1.02
1.87
2.73
4.65
8.85
16.11
26.65
40.14
55.99
73.43
91.62
109.73
127.21
144.02
160.78
178.49
197.91
218.91
239.93
258.17
270.23
273.28
265.91
248.54
222.96
191.53
156.32
118.78
79.84
40.15
0.28
-39.41
-78.99
-118.83
-159.21
-199.83
-239.38
-275.71
-306.33
-329.01
-342.25
-345.45
-338.96
-323.98
-302.52
-277.15
-250.65
-225.42
-202.90
-183.32
-165.91
-149.47
-133.07
-116.62
-100.87
-87.08
-76.38
-69.14
-64.74
-61.81
-58.81
-54.56
-48.59
-41.07
-32.59
-23.83
-15.49
-8.26
-2.77
0.59
1.98
2.26
2.90
5.43
10.73
18.47
27.12
34.42
38.38
38.08
34.28
29.20
25.98
27.83
37.25
55.09
79.77
106.67
128.45
136.83
125.45
93.01
44.78
-8.27
-52.95
-78.22
-78.68
-55.62
-15.71
31.61
76.69
111.52
130.85
132.87
119.67
96.95
72.57
54.22
46.92
51.50
64.73
80.81
93.71
99.08
95.39
84.06
68.67
53.71
43.20
39.50
42.72
50.81
60.36
67.73
69.94
65.35
53.75
36.16
14.48
-9.06
-32.33
-53.54
-71.35
-84.73
-92.82
-94.97
-90.94
-81.12
-66.72
-49.57
-31.76
-15.27
-1.52
8.76
15.55
19.44
21.27
21.94
22.20
22.55
23.30
24.62
26.59
29.10
31.76
33.75
33.95
31.25
24.89
14.85
1.86
-12.79
-27.73
-41.90
-54.77
-66.31
-76.80
-86.56
-95.84
-104.79
-113.55
-122.09
-129.95
-135.92
-138.00
-133.82
-121.47
-100.56
-72.79
-41.87
-12.42
11.40
27.36
35.78
39.05
40.23
41.46
43.21
44.63
44.79
43.80
42.98
44.10
48.02
53.89
59.41
62.03
60.35
54.78
47.09
39.34
32.87
28.01
24.60
22.74
23.09
26.60
33.91
45.00
59.12
75.10
91.67
107.73
122.33
134.62
143.93
149.93
152.88
153.64
153.50
153.46
153.65
152.88
148.87
139.18
122.36
98.81
70.85
41.93
15.29
-7.34
-26.51
-44.88
-66.04
-92.92
-126.45
-165.08
-205.45
-243.58
-276.05
-300.46
-315.26
-319.30
-311.85
-293.02
-264.75
-231.16
-197.98
-170.84
-153.10
-144.77
-142.80
-142.88
-141.66
-137.93
-132.52
-127.07
-122.48
-118.07
-111.96
-102.32
-88.89
-73.53
-59.27
-48.67
-42.20
-38.10
-33.62
-26.97
-18.55
-10.55
-5.38
-3.91
-4.92
-5.73
-3.88
1.95
11.68
24.63
40.30
58.25
77.64
96.75
113.36
125.86
134.27
140.51
147.71
158.95
176.19
199.69
228.09
258.66
287.66
310.79
323.90
324.16
311.18
287.51
258.23
229.55
206.87
193.28
189.07
192.25
199.86
209.21
218.41
226.27
231.69
233.20
229.29
219.44
204.92
189.05
176.21
170.01
171.48
178.29
185.43
187.08
178.85
159.29
129.80
93.33
52.62
9.15
-36.38
-82.69
-126.61
-163.15
-187.23
-196.22
-191.58
-178.46
-163.45
-151.71
-145.33
-143.86
-146.16
-152.10
-162.58
-178.12
-197.40
-217.16
-234.17
-247.81
-261.69
-282.42
-316.04
-363.78
-419.91
-472.95
-509.95
-521.57
-505.41
-466.07
-412.39
-353.35
-295.14
-240.23
-188.44
-138.84
-91.07
-45.32
-1.49
41.58
85.81
132.77
182.36
232.06
277.26
312.42
332.71
335.65
321.90
295.23
261.39
226.37
194.76
168.74
148.23
131.87
118.19
106.19
95.18
84.13
71.49
55.73
36.37
15.17
-4.15
-17.15
-20.48
-13.13
3.18
24.91
47.95
68.77
85.02
95.74
101.16
102.46
101.37
99.66
98.73
99.15
100.61
102.11
102.37
100.23
94.90
86.01
73.74
58.81
42.54
26.63
12.83
2.32
-4.61
-8.61
-11.00
-13.20
-16.28
-20.66
-26.25
-32.59
-39.14
-45.52
-51.59
-57.33
-62.93
-68.68
-74.90
-81.79
-89.29
-97.11
-104.75
-111.71
-117.77
-122.98
-127.65
-132.10
-136.34
-139.98
-142.28
-142.49
-140.13
-135.21
-128.25
-120.02
-111.40
-103.20
-96.16
-90.76
-87.08
-84.40
-81.20
-75.47
-65.42
-50.34
-31.16
-10.28
9.17
24.50
34.44
39.44
41.34
42.39
44.34
47.81
52.17
55.95
57.56
55.97
51.09
43.79
35.56
27.96
22.18
18.85
17.99
19.25
22.17
26.32
31.39
37.14
43.26
49.27
54.54
58.36
60.21
59.79
57.19
52.81
47.25
41.21
35.30
30.03
25.77
22.68
20.70
19.56
18.84
18.18
17.37
16.48
15.71
15.18
14.78
14.08
12.41
9.09
3.73
-3.62
-12.34
-21.38
-29.46
-35.31
-37.99
-37.04
-32.60
-25.46
-16.83
-8.14
-0.72
4.49
7.13
7.53
6.41
4.72
3.24
2.36
2.14
2.36
2.74
3.06
3.10
2.54
1.11
-1.34
-4.52
-7.69
-9.88
-10.38
-9.12
-6.86
-4.81
-4.00
-4.73
-6.47
-8.05
-8.20
-6.05
-1.32
5.53
13.62
21.85
29.23
35.02
38.90
40.98
41.61
41.27
40.32
39.04
37.54
35.85
33.88
31.46
28.34
24.29
19.31
13.73
8.12
3.01
-1.30
-5.02
-8.64
-12.75
-17.66
-23.30
-29.27
-35.09
-40.39
-44.97
-48.74
-51.57
-53.22
-53.45
-52.15
-49.47
-45.84
-41.84
-38.09
-34.95
-32.51
-30.49
-28.44
-25.89
-22.55
-18.46
-13.95
-9.56
-5.85
-3.17
-1.60
-0.93
-0.84
-1.03
-1.33
-1.68
-2.09
-2.54
-2.96
-3.29
-3.56
-3.91
-4.54
-5.50
-6.62
-7.56
-8.01
-7.87
-7.37
-6.85
-6.55
-6.44
-6.21
-5.63
-4.78
-4.15
-4.38
-5.88
-8.56
-11.80
-14.75
-16.73
-17.46
-17.04
-15.78
-13.99
-11.95
-9.93
-8.25
-7.29
-7.28
-8.13
-9.43
-10.52
-10.81
-9.98
-8.04
-5.37
-2.54
-0.16
1.28
1.52
0.64
-0.97
-2.71
-4.05
-4.74
-4.96
-5.25
-6.13
-7.78
-9.93
-11.84
-12.72
-11.99
-9.56
-5.81
-1.36
3.09
7.03
10.17
12.42
13.81
14.34
14.02
12.86
10.96
8.52
5.89
3.47
1.55
0.28
-0.37
-0.49
-0.19
0.47
1.34
2.14
2.42
1.72
-0.15
-2.98
-6.13
-8.92
-10.82
-11.76
-11.94
-11.59
-10.64
-8.81
-5.73
-1.39
3.67
8.51
12.23
14.35
15.04
14.94
14.74
14.90
15.40
15.90
16.02
15.48
14.27
12.62
10.88
9.41
8.46
8.06
8.03
8.02
7.73
7.06
6.22
5.56
5.41
5.88
6.82
8.00
9.24
10.53
11.97
13.61
15.39
17.10
18.62
19.99
21.44
23.25
25.52
28.17
30.88
33.33
35.31
36.79
37.92
38.89
39.83
40.74
41.49
41.81
41.38
39.91
37.30
33.64
29.20
24.39
19.55
14.92
10.56
6.35
2.10
-2.48
-7.65
-13.73
-20.97
-29.50
-39.22
-49.84
-60.81
-71.50
-81.40
-90.24
-98.00
-104.75
-110.51
-115.06
-118.10
-119.44
-119.26
-118.19
-117.01
-116.23
-115.65
-114.29
-110.66
-103.24
-91.02
-73.85
-52.45
-28.25
-3.19
20.64
41.22
56.96
66.87
70.80
69.33
63.51
54.64
43.91
32.28
20.53
9.31
-0.88
-9.65
-16.92
-22.81
-27.43
-30.76
-32.46
-32.04
-29.24
-24.33
-18.19
-12.04
-6.96
-3.37
-1.02
0.74
2.30
3.49
3.59
1.92
-1.69
-6.58
-11.71
-16.17
-19.64
-22.40
-24.87
-26.97
-28.02
-27.05
-23.44
-17.53
-10.55
-4.05
0.96
4.47
7.39
10.97
16.08
22.87
30.82
39.11
47.08
54.42
61.01
66.69
71.03
73.43
73.42
71.03
67.03
62.66
59.12
57.01
55.95
54.83
52.42
48.07
42.20
36.08
31.26
28.87
29.27
31.94
35.57
38.20
37.35
30.66
16.77
-3.56
-27.04
-48.57
-63.20
-68.37
-65.33
-58.52
-53.43
-53.90
-60.33
-69.82
-77.95
-81.12
-77.97
-69.44
-57.63
-44.48
-31.03
-17.52
-3.96
9.32
21.60
32.06
40.23
46.25
50.73
54.39
57.72
60.79
63.27
64.74
64.96
64.18
63.15
62.89
64.31
67.84
73.16
79.29
84.97
89.03
90.79
90.15
87.48
83.44
78.80
74.26
70.33
67.35
65.30
63.97
62.81
61.15
58.25
53.39
46.09
36.27
24.44
11.60
-0.93
-11.99
-20.87
-27.57
-32.62
-36.80
-40.79
-44.92
-49.16
-53.17
-56.39
-58.06
-57.43
-53.87
-47.09
-37.37
-25.47
-12.56
0.07
11.17
19.74
25.13
27.23
26.58
24.43
22.45
22.26
24.76
29.69
35.67
40.68
42.84
41.04
35.26
26.31
15.32
3.28
-9.28
-22.17
-35.20
-47.94
-59.53
-68.81
-74.69
-76.55
-74.53
-69.70
-63.79
-58.70
-55.93
-56.10
-58.78
-62.75
-66.44
-68.58
-68.51
-66.36
-62.78
-58.52
-54.19
-50.00
-45.85
-41.42
-36.46
-30.86
-24.80
-18.69
-13.13
-8.77
-6.16
-5.59
-7.04
-10.18
-14.44
-19.11
-23.40
-26.56
-27.97
-27.17
-24.02
-18.71
-11.75
-3.79
4.45
12.32
19.34
25.22
29.92
33.65
36.75
39.62
42.49
45.46
48.57
51.96
55.91
60.64
66.07
71.53
75.93
78.09
77.31
73.74
68.27
62.18
56.53
51.91
48.24
45.14
42.08
38.65
34.57
29.67
23.88
17.26
10.05
2.65
-4.31
-10.10
-13.93
-15.27
-14.05
-10.95
-7.40
-5.35
-6.71
-12.76
-23.67
-38.37
-54.82
-70.55
-83.27
-91.41
-94.39
-92.70
-87.62
-80.81
-73.85
-67.89
-63.42
-60.44
-58.65
-57.67
-57.12
-56.63
-55.79
-54.11
-51.27
-47.23
-42.29
-36.95
-31.67
-26.69
-22.03
-17.60
-13.39
-9.57
-6.40
-4.09
-2.67
-1.97
-1.70
-1.57
-1.40
-1.14
-0.81
-0.47
-0.23
-0.17
-0.35
-0.71
-0.87
-0.16
2.37
7.57
15.82
26.56
38.15
48.23
54.29
54.63
49.01
38.85
26.68
15.34
6.99
2.61
2.01
4.38
8.83
14.70
21.35
27.96
33.37
36.37
36.21
33.06
27.94
22.36
17.66
14.59
13.20
13.06
13.54
13.93
13.59
12.09
9.47
6.44
4.08
3.35
4.17
5.20
4.27
-0.44
-9.30
-20.78
-32.01
-40.19
-43.68
-42.68
-38.74
-33.83
-29.42
-26.17
-24.06
-22.95
-22.90
-24.00
-26.19
-28.84
-30.91
-31.19
-28.87
-23.90
-17.00
-9.38
-2.16
4.03
9.19
13.77
18.16
22.26
25.45
26.78
25.53
21.73
16.33
10.93
7.14
5.91
7.19
10.02
13.03
15.14
16.05
16.25
16.71
18.36
21.67
26.48
32.25
38.38
44.36
49.97
55.13
59.84
64.19
68.28
72.28
76.32
80.28
83.69
85.80
85.85
83.46
78.89
73.03
66.98
61.63
57.24
53.40
49.31
44.19
37.64
29.74
21.02
12.21
4.04
-2.86
-8.09
-11.60
-13.77
-15.35
-17.24
-20.13
-24.17
-28.79
-32.99
-35.67
-36.11
-34.18
-30.20
-24.76
-18.49
-11.97
-5.89
-1.07
1.70
1.97
-0.01
-3.15
-5.93
-6.95
-5.62
-2.42
1.25
3.69
3.58
0.40
-5.50
-13.18
-21.62
-30.01
-37.97
-45.41
-52.44
-59.17
-65.58
-71.53
-76.74
-80.93
-83.91
-85.78
-86.88
-87.73
-88.82
-90.46
-92.57
-94.85
-96.85
-98.07
-98.08
-96.61
-93.76
-90.15
-86.94
-85.46
-86.53
-89.80
-93.55
-95.24
-92.61
-84.89
-73.21
-60.17
-48.55
-40.11
-34.81
-31.09
-26.80
-20.34
-11.22
-0.09
11.90
23.84
35.43
46.98
58.96
71.43
83.87
95.18
104.15
109.93
112.28
111.47
107.89
101.55
92.08
79.09
62.88
44.87
27.55
13.76
5.57
3.43
6.00
10.83
15.44
18.34
19.33
19.20
18.86
18.89
19.17
19.17
18.25
15.99
12.26
7.16
0.99
-5.76
-12.50
-18.52
-23.09
-25.63
-25.83
-23.91
-20.61
-16.98
-14.08
-12.46
-12.00
-11.94
-11.40
-9.90
-7.70
-5.81
-5.43
-7.41
-11.77
-17.66
-23.69
-28.51
-31.31
-32.05
-31.38
-30.35
-29.96
-30.84
-33.11
-36.47
-40.32
-44.04
-47.02
-48.86
-49.37
-48.69
-47.28
-45.85
-45.05
-45.24
-46.28
-47.60
-48.48
-48.29
-46.69
-43.55
-38.85
-32.54
-24.60
-15.17
-4.66
6.22
16.71
26.08
33.83
39.74
43.77
46.06
46.89
46.67
45.91
45.05
44.44
44.19
44.27
44.62
45.19
45.90
46.50
46.52
45.29
42.27
37.30
30.85
23.99
18.08
14.44
13.92
16.67
22.07
28.90
35.68
41.07
44.34
45.53
45.41
45.13
45.72
47.67
50.73
54.13
56.96
58.51
58.60
57.52
55.90
54.34
53.24
52.59
52.09
51.29
49.86
47.73
45.17
42.62
40.43
38.72
37.32
35.93
34.26
32.24
29.89
27.22
23.99
19.76
14.08
6.80
-1.69
-10.59
-18.91
-25.84
-30.93
-34.10
-35.51
-35.37
-34.01
-32.06
-30.41
-30.14
-32.10
-36.56
-42.95
-50.02
-56.29
-60.65
-62.69
-62.71
-61.49
-59.89
-58.54
-57.71
-57.44
-57.60
-58.01
-58.45
-58.64
-58.24
-56.91
-54.42
-50.75
-46.07
-40.61
-34.46
-27.60
-19.93
-11.50
-2.59
6.28
14.55
21.81
27.96
33.06
37.27
40.68
43.40
45.58
47.53
49.65
52.14
54.91
57.40
58.89
58.86
57.24
54.45
51.18
48.09
45.51
43.45
41.66
39.77
37.45
34.49
30.78
26.30
21.12
15.40
9.35
3.26
-2.60
-7.98
-12.71
-16.65
-19.64
-21.55
-22.25
-21.74
-20.24
-18.24
-16.28
-14.74
-13.53
-12.11
-9.75
-5.92
-0.74
5.04
10.34
14.25
16.42
17.18
17.30
17.56
18.39
19.82
21.54
23.23
24.77
26.15
27.46
28.67
29.59
30.00
29.91
29.81
30.65
33.56
39.23
47.34
56.40
64.17
68.53
68.46
64.39
58.03
51.55
46.65
44.02
43.40
43.94
44.80
45.40
45.40
44.59
42.75
39.70
35.47
30.28
24.38
17.89
10.61
2.18
-7.64
-18.60
-29.85
-40.00
-47.50
-51.12
-50.30
-45.20
-36.70
-26.13
-14.97
-4.57
4.17
10.95
16.15
20.58
25.10
30.09
35.17
39.24
40.95
39.38
34.51
27.39
19.68
13.01
8.34
5.70
4.37
3.32
1.88
-0.03
-1.95
-3.42
-4.43
-5.78
-8.86
-15.08
-25.17
-38.63
-53.73
-68.04
-79.26
-86.01
-88.25
-87.11
-84.36
-81.64
-79.78
-78.54
-76.75
-72.92
-65.85
-55.15
-41.33
-25.74
-10.07
3.95
14.88
21.82
24.54
23.66
20.47
16.64
13.56
11.85
11.08
10.07
7.47
2.45
-4.94
-13.87
-23.13
-31.66
-38.96
-45.13
-50.65
-56.02
-61.49
-66.92
-71.85
-75.71
-78.03
-78.51
-77.11
-74.04
-69.71
-64.77
-60.04
-56.16
-53.17
-50.18
-45.43
-36.76
-22.64
-2.90
20.99
46.31
70.02
89.62
103.59
111.38
113.24
110.11
103.65
96.41
91.26
90.58
95.18
103.73
113.24
120.29
122.62
120.02
114.24
107.94
103.36
101.37
101.40
102.04
101.87
100.10
96.64
91.77
85.64
78.11
68.72
57.12
43.41
28.36
13.31
-0.13
-10.64
-17.62
-21.32
-22.83
-23.65
-25.14
-28.04
-32.32
-37.26
-41.91
-45.48
-47.63
-48.51
-48.58
-48.33
-48.26
-48.80
-50.48
-53.84
-59.21
-66.36
-74.27
-81.27
-85.48
-85.55
-81.11
-72.96
-62.80
-52.49
-43.48
-36.37
-31.00
-26.79
-23.26
-20.32
-18.26
-17.45
-17.98
-19.47
-21.16
-22.23
-22.17
-20.99
-19.26
-17.77
-17.23
-17.95
-19.83
-22.46
-25.38
-28.32
-31.23
-34.17
-37.17
-40.05
-42.47
-43.99
-44.28
-43.26
-41.10
-38.10
-34.56
-30.74
-26.86
-23.31
-20.68
-19.75
-21.28
-25.74
-33.03
-42.42
-52.62
-62.15
-69.66
-74.36
-76.15
-75.63
-73.90
-72.15
-71.34
-71.91
-73.70
-76.10
-78.39
-79.99
-80.77
-81.01
-81.27
-82.04
-83.43
-85.09
-86.30
-86.26
-84.42
-80.65
-75.23
-68.68
-61.58
-54.47
-47.94
-42.58
-39.06
-37.81
-38.89
-41.78
-45.53
-49.03
-51.45
-52.49
-52.43
-51.83
-51.10
-50.21
-48.64
-45.71
-41.03
-34.91
-28.30
-22.42
-18.10
-15.37
-13.45
-11.15
-7.54
-2.28
4.34
11.81
19.86
28.55
38.14
48.70
59.72
70.16
78.69
84.18
86.19
85.25
82.69
80.31
79.67
81.55
85.72
91.12
96.43
100.66
103.45
104.90
105.14
103.99
101.02
96.03
89.62
83.35
79.17
78.48
81.23
85.63
88.81
88.16
82.46
72.31
59.59
46.35
33.85
22.46
12.27
3.88
-1.38
-2.15
1.72
8.44
14.54
16.37
11.89
1.72
-11.08
-22.52
-29.54
-31.40
-29.66
-27.19
-26.50
-28.53
-32.39
-36.15
-38.18
-38.21
-37.54
-38.10
-41.07
-46.00
-50.91
-53.57
-53.02
-50.29
-47.84
-48.02
-51.57
-57.21
-62.46
-65.10
-64.35
-60.89
-56.21
-51.44
-46.71
-41.38
-34.62
-26.29
-17.28
-9.38
-4.62
-4.60
-9.73
-18.95
-29.84
-39.37
-44.90
-45.11
-40.38
-32.55
-23.97
-16.61
-11.50
-8.80
-8.32
-9.97
-13.75
-19.28
-25.26
-29.28
-28.48
-20.65
-5.44
15.21
37.58
57.47
71.73
79.23
81.01
79.56
77.74
77.72
80.65
86.69
95.49
106.44
118.85
131.80
144.02
154.02
160.35
161.97
158.56
150.64
139.31
126.05
112.28
99.11
87.11
76.19
65.61
54.36
41.73
27.95
14.59
4.19
-0.58
1.87
11.28
25.42
40.99
54.74
64.63
70.24
72.51
73.00
73.24
74.32
76.67
80.25
84.42
88.05
89.61
87.54
80.85
69.57
54.90
38.93
23.86
11.25
1.48
-6.22
-13.39
-21.66
-32.12
-45.06
-59.89
-75.38
-89.99
-102.17
-110.80
-115.36
-116.10
-113.89
-109.99
-105.50
-101.16
-97.21
-93.61
-90.40
-88.01
-87.24
-89.08
-94.19
-102.59
-113.47
-125.42
-136.91
-146.86
-155.06
-162.21
-169.61
-178.57
-189.82
-203.10
-217.28
-230.78
-242.16
-250.70
-256.60
-260.84
-264.75
-269.50
-275.70
-283.25
-291.37
-298.95
-304.86
-308.23
-308.47
-305.12
-297.74
-285.81
-269.06
-247.64
-222.51
-195.20
-167.55
-141.18
-117.11
-95.80
-77.19
-61.07
-47.11
-34.86
-23.77
-13.26
-2.89
7.40
17.34
26.58
34.91
42.49
49.69
56.89
64.24
71.50
78.29
84.27
89.45
94.18
99.11
104.93
112.10
120.61
130.02
139.75
149.23
158.30
167.20
176.50
186.97
199.35
214.41
232.66
254.06
277.41
300.21
318.93
330.08
331.48
323.18
307.41
287.61
267.11
248.01
230.93
215.51
201.14
187.54
174.72
162.75
151.41
140.17
128.44
115.92
102.80
89.66
77.35
66.63
57.95
51.40
46.70
43.52
41.56
40.78
41.26
43.00
45.83
49.24
52.50
54.79
55.30
53.41
48.82
41.74
33.02
23.99
16.15
10.68
8.04
7.92
9.55
12.06
14.89
17.85
20.96
24.18
27.29
29.86
31.38
31.44
29.85
26.74
22.57
18.07
14.03
11.17
9.95
10.54
12.90
16.90
22.37
29.09
36.84
45.36
54.39
63.58
72.28
79.52
84.10
84.93
81.46
73.93
63.32
50.91
37.91
25.15
13.16
2.32
-6.97
-14.37
-19.67
-22.83
-23.83
-22.60
-18.95
-12.95
-5.28
2.52
8.15
9.29
4.40
-6.66
-22.66
-41.38
-60.53
-78.22
-93.23
-104.73
-111.96
-114.16
-110.95
-102.82
-91.53
-79.80
-70.38
-64.92
-63.20
-63.21
-62.21
-58.02
-49.91
-38.77
-26.46
-14.70
-4.31
4.90
13.66
22.43
30.93
38.16
42.92
44.44
42.96
39.57
35.72
32.53
30.26
28.22
25.32
20.74
14.52
7.65
1.71
-1.83
-2.24
0.24
4.52
9.23
13.14
15.70
16.98
17.54
18.07
19.16
21.06
23.61
26.17
27.70
27.07
23.44
16.83
8.40
0.15
-5.87
-8.64
-8.69
-7.94
-8.65
-12.08
-17.75
-23.68
-27.59
-28.23
-26.07
-22.86
-20.46
-19.64
-19.76
-19.29
-16.99
-12.87
-8.21
-4.92
-4.28
-6.33
-9.71
-12.59
-13.57
-12.44
-10.15
-8.19
-7.64
-8.56
-9.93
-10.10
-7.61
-1.87
6.53
16.11
25.17
32.41
37.47
40.75
43.08
45.00
46.45
46.72
44.92
40.52
33.70
25.39
16.86
9.30
3.38
-0.68
-2.83
-2.91
-0.45
5.10
13.85
25.14
37.45
48.94
58.07
64.28
68.05
70.54
72.83
75.41
78.01
80.04
81.32
82.44
84.73
89.56
97.53
107.97
119.23
129.45
137.35
142.83
146.62
149.69
152.41
154.33
154.30
151.13
144.14
133.41
119.73
104.28
88.50
74.07
62.88
56.81
57.19
64.07
75.80
89.07
99.80
104.37
100.81
89.37
72.20
52.43
32.89
15.38
0.41
-12.35
-23.44
-33.11
-41.18
-47.32
-51.50
-54.28
-56.76
-60.30
-66.05
-74.63
-85.91
-99.07
-112.82
-125.73
-136.56
-144.60
-149.77
-152.64
-154.19
-155.38
-156.79
-158.36
-159.46
-159.22
-156.91
-152.29
-145.59
-137.37
-128.33
-119.19
-110.71
-103.69
-98.80
-96.33
-95.94
-96.52
-96.58
-94.72
-90.20
-83.18
-74.50
-65.16
-55.86
-46.79
-37.75
-28.57
-19.40
-10.78
-3.42
2.11
5.68
7.71
8.98
10.39
12.59
15.84
19.95
24.56
29.30
34.02
38.92
44.49
51.35
60.00
70.70
83.16
96.47
108.96
118.32
122.07
118.30
106.59
88.53
67.47
47.51
31.97
22.14
16.90
13.50
9.03
1.87
-7.64
-17.67
-26.06
-31.51
-34.13
-35.08
-35.71
-36.76
-38.19
-39.49
-40.38
-41.22
-42.86
-46.09
-50.94
-56.45
-60.97
-63.01
-62.01
-58.63
-54.29
-50.28
-46.95
-43.52
-38.62
-31.30
-21.77
-11.46
-2.41
3.79
6.67
6.95
5.88
4.43
2.80
0.51
-3.06
-8.02
-13.89
-19.78
-24.98
-29.19
-32.64
-35.69
-38.64
-41.52
-44.24
-46.67
-48.68
-49.97
-49.99
-48.05
-43.64
-36.74
-28.09
-18.93
-10.59
-4.00
0.51
3.13
4.23
4.10
2.84
0.41
-3.08
-7.35
-11.80
-15.75
-18.58
-19.99
-20.17
-19.78
-19.71
-20.69
-22.84
-25.60
-27.89
-28.72
-27.67
-25.19
-22.42
-20.70
-21.08
-23.98
-29.16
-35.84
-42.96
-49.27
-53.58
-54.95
-52.97
-47.77
-40.08
-30.94
-21.45
-12.63
-5.27
0.06
3.12
4.11
3.63
2.50
1.42
0.64
-0.14
-1.55
-4.23
-8.49
-14.20
-20.86
-27.96
-35.09
-42.09
-48.92
-55.61
-62.14
-68.51
-74.74
-80.95
-87.28
-93.87
-100.83
-108.15
-115.80
-123.67
-131.66
-139.59
-147.26
-154.53
-161.59
-168.99
-177.46
-187.54
-199.02
-210.86
-221.54
-229.74
-234.83
-236.93
-236.23
-232.17
-222.96
-206.04
-179.29
-142.49
-98.01
-50.32
-4.59
35.16
67.12
91.73
110.69
125.70
137.57
146.10
150.74
151.42
149.14
145.95
144.27
146.09
152.23
162.14
174.21
186.33
196.45
203.07
205.48
203.95
199.85
195.56
193.94
197.56
207.58
222.92
240.15
254.19
259.99
254.28
236.81
210.46
180.21
151.33
127.70
110.80
99.87
92.67
86.75
80.23
72.21
62.53
51.52
39.61
27.16
14.52
2.16
-9.08
-17.77
-21.83
-18.88
-7.16
13.37
40.34
69.32
95.17
114.13
125.11
129.85
131.48
132.53
133.35
132.10
125.93
112.86
92.96
68.34
42.10
16.99
-5.48
-24.85
-41.15
-54.36
-64.36
-71.44
-76.77
-82.41
-90.65
-103.07
-119.76
-139.30
-159.48
-178.38
-195.05
-209.68
-223.01
-235.44
-246.53
-255.03
-259.61
-259.72
-256.17
-250.91
-246.05
-242.46
-238.86
-232.00
-217.94
-193.98
-159.92
-118.21
-72.59
-26.51
18.06
60.47
100.38
136.85
168.21
192.74
209.70
219.89
225.27
228.07
229.97
231.58
232.49
231.36
226.04
213.91
192.55
160.91
120.34
74.99
31.05
-5.11
-28.95
-39.14
-37.56
-27.95
-14.23
0.76
15.53
29.16
40.35
46.77
45.54
34.39
12.97
-16.43
-49.38
-80.67
-105.90
-122.41
-129.45
-127.67
-118.47
-103.75
-85.70
-66.79
-49.53
-35.96
-27.33
-23.99
-25.65
-31.76
-41.84
-55.39
-71.65
-89.42
-107.06
-122.90
-135.67
-145.07
-151.75
-157.13
-162.61
-168.90
-175.40
-180.26
-181.12
-176.07
-164.38
-146.32
-122.55
-93.21
-57.85
-16.30
29.99
76.90
118.16
147.26
160.28
157.79
144.98
129.68
119.23
117.74
124.93
137.04
148.89
156.07
156.01
148.05
132.52
110.11
81.74
49.03
14.88
-16.68
-41.46
-56.33
-60.32
-54.82
-42.81
-27.71
-12.30
1.80
13.99
24.36
33.36
41.50
49.25
56.73
63.57
68.71
70.74
68.29
60.72
48.43
32.73
15.41
-1.88
-17.96
-32.28
-44.78
-55.85
-66.14
-76.48
-87.57
-99.44
-111.15
-120.71
-125.70
-124.27
-115.93
-101.97
-85.09
-68.35
-54.12
-43.40
-35.75
-29.78
-23.98
-17.34
-9.54
-0.87
8.27
17.63
27.28
37.30
47.45
56.75
63.45
65.35
60.52
48.09
28.78
4.94
-19.93
-42.11
-58.56
-67.70
-69.76
-66.71
-61.87
-58.91
-60.83
-68.71
-81.09
-94.13
-102.82
-102.79
-92.05
-71.60
-45.03
-16.95
8.65
29.49
45.04
55.83
62.43
64.92
63.06
56.98
47.95
38.54
32.01
31.15
37.00
48.24
61.55
72.97
79.50
80.15
76.08
69.61
62.85
56.60
50.08
41.46
28.78
10.94
-11.68
-36.94
-61.25
-80.37
-90.62
-90.12
-79.64
-62.41
-43.06
-25.85
-13.27
-5.54
-1.27
1.20
2.61
2.38
-0.86
-8.04
-18.76
-30.94
-41.54
-47.65
-47.68
-41.94
-32.43
-21.99
-13.15
-7.33
-4.61
-4.16
-4.93
-6.29
-8.10
-10.39
-12.79
-14.31
-13.50
-9.16
-1.05
9.87
21.86
33.25
43.30
52.43
61.78
72.17
83.24
93.27
99.77
100.59
94.97
83.86
69.57
54.84
41.92
32.04
25.53
22.22
21.86
24.26
29.16
35.97
43.68
51.08
57.15
61.42
64.01
65.27
65.40
64.18
61.20
56.23
49.69
42.68
36.59
32.38
30.15
29.14
28.24
26.77
24.87
23.45
23.61
25.90
29.89
34.23
37.27
37.77
35.40
30.85
25.41
20.44
16.94
15.35
15.73
17.90
21.58
26.35
31.63
36.79
41.38
45.29
48.79
52.04
54.56
54.85
50.69
40.15
22.74
0.10
-24.41
-46.97
-64.90
-77.58
-86.26
-93.04
-99.60
-106.37
-112.57
-116.74
-117.49
-114.05
-106.49
-95.68
-83.33
-71.70
-63.17
-59.45
-60.81
-65.82
-71.60
-74.68
-72.04
-62.06
-45.02
-23.09
0.12
20.42
34.26
39.64
36.79
27.91
16.32
5.26
-3.08
-7.94
-9.67
-9.09
-6.88
-3.37
1.38
7.27
14.20
22.05
30.83
40.65
51.42
62.53
72.65
79.93
82.58
79.68
71.75
60.89
50.25
43.09
41.66
46.48
56.19
67.91
78.16
83.80
82.91
75.25
62.21
46.29
30.22
16.20
5.30
-2.55
-8.24
-12.95
-17.60
-22.73
-28.44
-34.62
-40.96
-46.99
-52.13
-55.82
-57.71
-57.89
-56.88
-55.37
-53.97
-52.97
-52.25
-51.58
-50.74
-49.65
-48.18
-46.05
-42.71
-37.52
-30.15
-20.90
-10.78
-1.28
6.21
10.99
13.38
14.66
16.50
20.26
26.34
34.02
41.71
47.57
50.24
49.29
45.19
38.93
31.34
22.61
12.19
-0.72
-16.45
-34.26
-52.22
-67.75
-78.52
-83.27
-82.00
-75.75
-65.77
-53.10
-38.35
-22.21
-5.94
8.43
18.54
22.60
20.30
13.13
3.84
-4.59
-10.17
-12.47
-12.44
-11.68
-11.41
-11.98
-12.83
-13.18
-12.61
-11.46
-10.56
-10.80
-12.59
-15.66
-19.31
-22.71
-25.21
-26.42
-26.21
-24.71
-22.31
-19.72
-17.81
-17.35
-18.62
-21.10
-23.67
-25.02
-24.32
-21.86
-19.25
-19.08
-23.92
-35.03
-51.40
-69.72
-85.35
-93.82
-92.15
-79.52
-56.95
-26.62
8.64
45.49
79.87
107.28
123.54
126.29
116.09
96.60
73.47
52.41
37.37
29.58
27.88
29.72
32.49
34.49
35.31
35.51
35.84
36.59
37.20
36.54
33.62
28.20
21.27
14.77
10.75
10.37
13.41
18.32
23.03
25.98
26.77
26.15
25.40
25.42
26.12
26.53
25.40
21.94
16.37
9.84
3.85
-0.48
-2.94
-4.23
-5.52
-7.90
-11.87
-17.16
-22.84
-27.66
-30.39
-30.26
-27.27
-22.28
-16.89
-12.77
-11.00
-11.52
-13.08
-13.81
-12.24
-8.02
-2.18
3.50
7.41
9.02
9.08
9.09
10.52
14.00
19.22
25.16
30.72
35.19
38.40
40.52
41.88
42.77
43.34
43.62
43.45
42.53
40.58
37.47
33.26
28.08
21.83
14.17
4.75
-6.29
-17.86
-27.97
-34.46
-36.01
-32.89
-26.86
-20.32
-15.04
-11.38
-8.41
-4.81
0.05
5.52
10.02
11.91
10.46
6.25
0.77
-4.30
-7.79
-9.33
-9.15
-7.70
-5.38
-2.56
0.19
2.06
2.09
-0.49
-5.94
-14.02
-24.09
-35.31
-46.79
-57.40
-65.70
-70.02
-68.89
-61.52
-48.24
-30.38
-10.04
10.45
28.92
43.50
52.74
55.73
52.43
43.86
32.11
19.87
9.73
3.44
1.61
3.73
8.59
14.65
20.28
23.92
24.23
20.58
13.38
4.23
-4.40
-10.15
-11.73
-9.54
-5.45
-1.89
-0.68
-2.27
-5.84
-9.97
-13.49
-15.97
-17.55
-18.46
-18.52
-17.06
-13.43
-7.56
-0.24
7.07
12.89
16.30
17.28
16.50
14.85
12.97
11.14
9.38
7.76
6.52
6.03
6.43
7.53
8.76
9.47
9.33
8.56
7.82
7.83
9.09
11.50
14.44
17.01
18.30
17.66
14.89
10.24
4.39
-1.66
-6.78
-9.97
-10.63
-8.79
-5.07
-0.40
4.25
8.21
11.20
13.25
14.47
14.90
14.51
13.29
11.40
9.30
7.60
6.85
7.22
8.32
9.30
9.17
7.27
3.65
-0.95
-5.42
-8.80
-10.73
-11.61
-12.25
-13.40
-15.33
-17.77
-20.10
-21.78
-22.59
-22.74
-22.60
-22.47
-22.36
-21.99
-20.97
-19.00
-16.12
-12.63
-9.08
-5.95
-3.62
-2.14
-1.37
-1.02
-0.83
-0.57
-0.16
0.42
1.09
1.67
1.91
1.51
0.28
-1.75
-4.22
-6.54
-8.19
-8.92
-8.94
-8.84
-9.34
-10.89
-13.48
-16.61
-19.53
-21.51
-22.12
-21.22
-18.95
-15.58
-11.35
-6.52
-1.31
4.02
9.23
14.06
18.25
21.55
23.78
24.77
24.55
23.28
21.29
18.95
16.59
14.39
12.45
10.79
9.46
8.54
8.05
7.80
7.33
6.08
3.63
-0.06
-4.55
-9.11
-13.01
-15.87
-17.68
-18.63
-18.87
-18.26
-16.45
-13.10
-8.10
-1.76
5.28
12.30
18.62
23.74
27.26
28.97
28.81
27.03
24.12
20.69
17.32
14.42
12.17
10.58
9.57
8.99
8.54
7.77
6.23
3.57
-0.20
-4.74
-9.48
-13.96
-18.01
-21.80
-25.64
-29.72
-33.96
-37.98
-41.28
-43.45
-44.15
-43.16
-40.24
-35.21
-28.02
-18.95
-8.59
2.18
12.47
21.57
29.02
34.57
38.16
39.95
40.41
40.37
40.77
42.28
45.02
48.39
51.39
53.06
52.96
51.29
48.73
46.01
43.59
41.49
39.33
36.63
32.99
28.24
22.46
15.85
8.67
1.10
-6.80
-14.95
-23.22
-31.28
-38.68
-45.01
-49.88
-53.04
-54.27
-53.34
-50.12
-44.69
-37.60
-29.84
-22.73
-17.50
-14.90
-14.87
-16.65
-19.00
-20.72
-21.10
-20.08
-18.14
-16.05
-14.52
-13.85
-14.01
-14.62
-15.24
-15.52
-15.31
-14.72
-14.07
-13.78
-14.19
-15.46
-17.47
-19.86
-22.11
-23.73
-24.33
-23.70
-21.82
-18.82
-14.98
-10.67
-6.19
-1.71
2.79
7.38
11.99
16.28
19.63
21.47
21.50
20.08
18.09
16.65
16.64
18.34
21.37
24.87
27.96
30.09
31.14
31.39
31.24
31.10
31.20
31.61
32.30
33.20
34.14
34.90
35.17
34.66
33.12
30.38
26.33
20.91
14.15
6.31
-2.05
-10.12
-17.00
-22.06
-25.21
-26.91
-27.94
-28.97
-30.23
-31.45
-32.13
-31.89
-30.79
-29.35
-28.30
-28.24
-29.41
-31.54
-34.06
-36.36
-37.94
-38.56
-38.15
-36.70
-34.19
-30.58
-25.95
-20.65
-15.27
-10.54
-7.03
-4.99
-4.17
-4.10
-4.25
-4.45
-4.95
-6.28
-8.87
-12.66
-16.99
-20.76
-22.92
-22.92
-20.98
-17.87
-14.54
-11.71
-9.68
-8.32
-7.29
-6.17
-4.58
-2.28
0.74
4.19
7.56
10.38
12.55
14.39
16.48
19.15
22.11
24.45
25.12
23.56
20.08
15.82
11.98
9.23
7.36
5.48
2.63
-1.63
-7.01
-12.64
-17.54
-21.03
-22.97
-23.64
-23.54
-23.02
-22.14
-20.65
-18.15
-14.42
-9.62
-4.38
0.44
3.95
5.73
5.88
5.04
4.02
3.48
3.72
4.67
6.18
8.07
10.29
12.74
15.13
16.94
17.60
16.71
14.30
10.84
7.03
3.59
1.04
-0.36
-0.58
0.14
1.29
2.16
1.95
0.12
-3.24
-7.36
-10.97
-12.91
-12.67
-10.60
-7.75
-5.34
-4.19
-4.47
-5.64
-6.86
-7.29
-6.44
-4.18
-0.68
3.65
8.39
13.10
17.43
21.10
23.87
25.55
25.99
25.20
23.43
21.22
19.25
18.10
17.99
18.69
19.60
20.03
19.43
17.61
14.74
11.27
7.80
4.95
3.26
3.11
4.57
7.43
11.15
15.13
18.84
21.96
24.44
26.34
27.84
29.07
30.14
31.14
32.12
32.96
33.38
32.88
30.88
26.95
21.03
13.46
5.00
-3.46
-11.18
-17.75
-23.15
-27.65
-31.54
-34.95
-37.85
-40.15
-41.78
-42.77
-43.13
-42.70
-41.12
-37.99
-33.14
-26.85
-19.84
-13.00
-6.98
-1.98
2.16
5.70
8.63
10.65
11.39
10.81
9.43
8.11
7.69
8.53
10.28
12.16
13.35
13.48
12.75
11.79
11.26
11.57
12.67
14.09
15.23
15.64
15.14
13.87
12.13
10.18
8.12
5.91
3.52
1.08
-1.14
-2.81
-3.74
-3.90
-3.35
-2.05
0.18
3.49
7.81
12.60
16.98
20.13
21.64
21.79
21.33
20.93
20.78
20.38
18.83
15.49
10.34
4.18
-1.83
-6.62
-9.76
-11.53
-12.66
-13.93
-15.78
-18.21
-20.93
-23.61
-26.04
-28.16
-29.84
-30.78
-30.52
-28.66
-25.11
-20.18
-14.55
-8.91
-3.75
0.83
4.98
8.82
12.26
14.98
16.66
17.14
16.62
15.48
14.16
12.94
11.90
10.94
9.92
8.75
7.40
5.85
4.03
1.87
-0.67
-3.51
-6.41
-9.07
-11.33
-13.26
-15.24
-17.69
-20.81
-24.19
-26.83
-27.47
-25.04
-19.25
-10.60
-0.26
10.43
20.29
28.51
34.56
38.14
39.18
37.97
35.13
31.52
27.82
24.21
20.20
14.92
7.63
-1.61
-11.68
-20.63
-26.49
-28.26
-26.45
-22.95
-20.07
-19.27
-20.36
-21.63
-20.93
-17.07
-10.70
-4.14
-0.29
-1.17
-7.09
-16.80
-28.24
-39.49
-49.13
-56.05
-59.22
-57.73
-51.36
-41.10
-29.13
-17.99
-9.45
-3.63
0.81
5.62
11.70
18.41
23.87
25.97
23.45
16.35
5.90
-5.92
-16.94
-25.23
-29.44
-29.25
-25.38
-19.43
-13.23
-8.11
-4.59
-2.61
-2.23
-3.90
-8.41
-16.17
-26.63
-38.09
-48.24
-54.95
-56.99
-54.15
-47.01
-36.46
-23.48
-9.07
5.63
19.30
30.51
37.91
40.43
37.59
29.63
17.75
4.14
-8.18
-15.96
-16.67
-9.51
4.03
20.28
34.55
42.77
43.01
35.93
24.19
10.94
-1.58
-12.48
-21.81
-29.51
-34.76
-36.07
-32.25
-23.41
-11.42
0.51
9.04
12.09
9.49
2.77
-5.65
-13.60
-19.76
-23.56
-24.58
-22.06
-14.89
-2.49
14.28
32.68
48.77
58.89
61.39
57.21
49.41
41.37
35.25
31.16
27.68
23.32
17.66
11.89
8.10
8.05
12.08
18.82
25.73
30.23
30.78
27.42
21.53
14.99
9.42
5.44
2.61
-0.21
-4.25
-10.13
-17.40
-24.48
-29.20
-29.67
-25.18
-16.63
-6.14
3.85
11.72
17.10
20.60
23.02
24.49
24.46
22.17
17.56
11.68
6.45
3.86
4.99
9.67
16.47
23.42
28.61
30.68
29.05
23.90
15.99
6.46
-3.42
-12.53
-19.97
-25.07
-27.45
-27.12
-24.59
-21.01
-18.05
-17.45
-20.46
-27.18
-36.40
-45.92
-53.32
-56.83
-56.01
-51.82
-46.17
-41.01
-37.55
-35.77
-34.52
-32.07
-26.96
-18.67
-7.87
3.80
14.23
21.54
24.68
23.76
20.26
16.74
16.18
21.01
32.23
48.83
68.07
86.26
100.15
107.93
109.72
107.26
103.04
99.41
97.73
98.12
99.68
100.98
100.69
97.99
92.78
85.35
76.09
65.32
53.58
41.98
32.37
26.79
26.52
31.21
38.67
45.72
49.56
48.87
44.01
36.40
27.46
18.10
8.80
0.13
-6.96
-11.48
-13.14
-12.85
-12.43
-13.65
-17.12
-21.98
-26.49
-29.35
-30.64
-31.90
-35.06
-41.14
-49.42
-57.82
-64.11
-67.18
-67.56
-66.83
-66.50
-67.01
-67.64
-67.14
-64.75
-60.66
-55.94
-51.74
-48.68
-46.68
-45.21
-43.77
-42.17
-40.42
-38.48
-36.24
-33.54
-30.50
-27.65
-25.68
-25.14
-26.10
-28.01
-29.99
-31.27
-31.39
-30.41
-28.66
-26.54
-24.35
-22.27
-20.39
-18.75
-17.30
-15.93
-14.52
-13.00
-11.38
-9.85
-8.72
-8.32
-8.88
-10.43
-12.73
-15.32
-17.67
-19.30
-19.89
-19.34
-17.69
-15.12
-11.84
-8.19
-4.47
-0.99
2.05
4.60
6.71
8.36
9.45
9.81
9.34
8.24
6.98
6.14
6.08
6.72
7.55
7.90
7.30
5.67
3.39
0.96
-1.17
-2.81
-3.93
-4.66
-5.10
-5.32
-5.45
-5.73
-6.43
-7.80
-9.83
-12.26
-14.58
-16.20
-16.65
-15.68
-13.28
-9.62
-4.96
0.43
6.20
11.94
17.21
21.61
24.93
27.17
28.57
29.41
29.97
30.37
30.59
30.51
30.03
29.05
27.54
25.54
23.14
20.56
18.11
16.20
15.17
15.07
15.62
16.15
15.96
14.53
11.84
8.38
4.88
1.98
-0.15
-1.75
-3.40
-5.64
-8.64
-12.14
-15.47
-17.77
-18.22
-16.38
-12.37
-6.93
-1.28
3.32
6.03
6.85
6.51
6.17
6.71
8.37
10.61
12.48
13.27
12.87
11.78
10.78
10.46
10.92
11.87
12.89
13.71
14.32
14.81
15.20
15.29
14.74
13.23
10.64
7.14
3.08
-1.20
-5.53
-9.97
-14.71
-19.86
-25.23
-30.29
-34.24
-36.40
-36.51
-34.77
-31.67
-27.74
-23.30
-18.57
-13.83
-9.50
-6.04
-3.67
-2.19
-1.11
-0.08
0.83
1.11
0.15
-2.19
-5.35
-8.34
-10.29
-11.00
-10.99
-10.98
-11.39
-11.95
-11.95
-10.90
-9.02
-7.34
-7.18
-9.25
-13.09
-17.10
-19.16
-17.77
-12.78
-5.50
1.95
7.58
10.49
11.15
10.94
11.52
13.87
18.03
23.11
27.77
30.79
31.49
29.86
26.46
22.27
18.41
15.92
15.51
17.29
20.61
24.28
26.96
27.59
25.88
22.31
17.83
13.34
9.35
5.89
2.79
0.01
-2.25
-3.67
-4.09
-3.75
-3.24
-3.19
-3.90
-5.23
-6.65
-7.63
-7.92
-7.76
-7.68
-8.20
-9.54
-11.41
-13.21
-14.29
-14.31
-13.39
-12.03
-10.78
-9.95
-9.51
-9.15
-8.54
-7.54
-6.28
-5.07
-4.30
-4.26
-5.11
-6.88
-9.52
-12.89
-16.89
-21.47
-26.68
-32.72
-39.83
-48.06
-57.04
-65.97
-73.74
-79.39
-82.44
-83.10
-82.21
-80.79
-79.70
-79.25
-79.15
-78.68
-76.97
-73.31
-67.45
-59.59
-50.35
-40.47
-30.68
-21.51
-13.32
-6.30
-0.49
4.20
8.18
12.10
16.79
23.05
31.35
41.57
53.02
64.63
75.28
84.19
91.03
95.71
98.21
98.33
95.72
90.14
81.78
71.43
60.31
49.80
40.92
34.19
29.54
26.51
24.41
22.51
20.25
17.45
14.47
12.26
12.08
14.90
20.90
29.18
37.97
45.20
49.16
49.09
45.28
38.99
31.93
25.69
21.29
18.84
17.66
16.65
14.90
12.16
8.99
6.45
5.47
6.24
8.02
9.40
8.98
6.03
0.69
-6.15
-13.28
-19.62
-24.43
-27.28
-27.95
-26.31
-22.51
-17.02
-10.83
-5.34
-2.07
-2.28
-6.42
-13.89
-23.06
-31.63
-37.31
-38.53
-34.97
-27.67
-18.61
-10.06
-3.87
-0.99
-1.40
-4.31
-8.54
-12.90
-16.50
-18.84
-19.96
-20.36
-20.86
-22.32
-25.39
-30.29
-36.76
-44.23
-52.02
-59.68
-67.00
-73.98
-80.69
-87.01
-92.56
-96.68
-98.49
-96.86
-90.56
-78.50
-60.03
-35.40
-5.98
25.90
57.52
86.43
111.01
130.59
145.13
154.79
159.64
159.80
155.77
148.76
140.62
133.37
128.55
126.70
127.23
128.64
128.93
126.13
118.80
106.44
89.64
70.09
49.94
31.26
15.33
2.41
-8.04
-16.86
-24.68
-31.59
-37.31
-41.47
-43.88
-44.62
-43.92
-42.00
-38.97
-34.90
-29.86
-24.02
-17.60
-10.80
-3.87
2.76
8.35
11.88
12.35
9.29
3.14
-4.69
-12.28
-17.90
-20.74
-21.20
-20.62
-20.62
-22.46
-26.57
-32.58
-39.66
-46.87
-53.43
-58.78
-62.54
-64.40
-64.21
-61.97
-57.96
-52.80
-47.37
-42.56
-39.09
-37.13
-36.34
-35.88
-34.90
-32.88
-30.00
-27.06
-25.08
-24.84
-26.47
-29.45
-32.92
-36.08
-38.55
-40.48
-42.37
-44.81
-48.13
-52.23
-56.45
-59.66
-60.45
-57.56
-50.26
-38.74
-24.17
-8.47
6.25
18.19
26.30
30.45
31.25
29.74
27.08
24.18
21.58
19.43
17.61
15.87
13.91
11.48
8.42
4.71
0.53
-3.66
-7.11
-8.94
-8.21
-4.26
3.01
12.98
24.21
34.75
42.56
46.18
45.17
40.44
34.01
28.37
25.61
26.69
31.20
37.60
44.03
48.92
51.56
51.92
50.41
47.44
43.26
37.94
31.57
24.40
16.92
9.80
3.69
-0.90
-3.78
-5.26
-5.99
-6.83
-8.53
-11.46
-15.40
-19.74
-23.67
-26.49
-27.75
-27.26
-25.05
-21.34
-16.55
-11.28
-6.20
-1.78
1.89
5.13
8.45
12.27
16.65
21.29
25.67
29.35
32.17
34.13
35.32
35.63
34.85
32.85
29.85
26.49
23.67
22.08
21.82
22.29
22.50
21.59
19.30
16.02
12.57
9.62
7.26
5.03
2.09
-2.14
-7.63
-13.68
-19.15
-22.91
-24.29
-23.27
-20.40
-16.47
-12.20
-8.04
-4.07
-0.19
3.75
7.73
11.62
15.09
17.80
19.47
19.92
19.14
17.29
14.69
11.80
9.16
7.16
6.01
5.62
5.71
5.91
5.90
5.37
4.12
2.04
-0.86
-4.32
-7.88
-10.96
-13.21
-14.62
-15.62
-16.88
-19.04
-22.41
-26.92
-32.09
-37.25
-41.66
-44.62
-45.63
-44.50
-41.38
-36.75
-31.21
-25.26
-19.16
-12.94
-6.62
-0.41
5.21
9.63
12.38
13.35
12.94
11.85
10.88
10.56
10.99
11.90
12.81
13.27
13.11
12.44
11.57
10.82
10.35
10.14
9.99
9.66
8.92
7.60
5.64
3.09
0.12
-2.99
-5.94
-8.46
-10.44
-11.88
-12.83
-13.31
-13.26
-12.61
-11.24
-9.15
-6.39
-3.08
0.68
4.79
9.19
13.75
18.23
22.25
25.32
27.00
27.04
25.55
22.99
20.09
17.61
16.06
15.57
15.78
16.11
15.96
14.94
13.06
10.64
8.18
6.08
4.48
3.25
2.12
0.85
-0.69
-2.54
-4.69
-7.19
-10.15
-13.63
-17.54
-21.65
-25.57
-28.90
-31.31
-32.59
-32.65
-31.50
-29.21
-25.98
-22.05
-17.67
-12.99
-8.06
-2.86
2.60
8.11
13.29
17.63
20.75
22.51
23.15
23.17
23.09
23.27
23.66
23.94
23.59
22.22
19.77
16.54
13.13
10.15
7.99
6.67
5.98
5.55
5.13
4.58
3.91
3.09
2.04
0.61
-1.33
-3.84
-6.95
-10.67
-15.03
-19.97
-25.16
-29.96
-33.49
-34.95
-33.95
-30.80
-26.32
-21.55
-17.18
-13.38
-9.73
-5.70
-1.10
3.72
7.97
10.86
12.05
11.91
11.26
10.94
11.41
12.51
13.71
14.43
14.40
13.72
12.82
12.05
11.57
11.29
10.93
10.23
9.02
7.34
5.39
3.44
1.72
0.33
-0.78
-1.83
-3.13
-4.98
-7.53
-10.76
-14.38
-17.94
-20.87
-22.70
-23.21
-22.45
-20.82
-18.76
-16.62
-14.33
-11.57
-7.88
-3.09
2.47
8.04
12.68
15.72
17.05
17.04
16.35
15.54
14.80
14.09
13.23
12.18
11.07
10.14
9.60
9.42
9.41
9.23
8.57
7.28
5.40
3.12
0.76
-1.47
-3.52
-5.54
-7.80
-10.53
-13.71
-17.09
-20.21
-22.62
-24.08
-24.56
-24.25
-23.32
-21.84
-19.76
-17.04
-13.78
-10.29
-7.01
-4.22
-1.95
0.14
2.45
5.23
8.32
11.21
13.27
14.18
14.07
13.55
13.35
13.97
15.38
17.10
18.41
18.68
17.64
15.44
12.58
9.61
6.94
4.73
2.83
0.96
-1.08
-3.30
-5.46
-7.29
-8.64
-9.59
-10.49
-11.71
-13.50
-15.81
-18.35
-20.74
-22.64
-23.86
-24.31
-23.99
-22.93
-21.30
-19.34
-17.41
-15.74
-14.30
-12.69
-10.31
-6.72
-1.95
3.33
8.04
11.21
12.46
12.22
11.45
11.16
11.86
13.32
14.83
15.68
15.57
14.71
13.62
12.73
12.13
11.47
10.27
8.20
5.34
2.19
-0.54
-2.29
-2.94
-2.81
-2.56
-2.82
-3.98
-5.98
-8.51
-11.16
-13.64
-15.80
-17.57
-18.84
-19.32
-18.78
-17.14
-14.67
-11.88
-9.29
-7.21
-5.51
-3.83
-1.85
0.51
2.94
4.95
6.20
6.63
6.57
6.47
6.72
7.34
8.06
8.44
8.16
7.15
5.64
4.03
2.64
1.60
0.76
-0.13
-1.27
-2.66
-4.11
-5.33
-6.26
-7.10
-8.26
-10.13
-12.80
-16.03
-19.34
-22.31
-24.73
-26.63
-28.19
-29.44
-30.25
-30.29
-29.29
-27.13
-23.89
-19.78
-15.00
-9.72
-4.14
1.41
6.56
10.90
14.21
16.50
18.01
19.04
19.80
20.30
20.39
19.93
18.88
17.36
15.58
13.74
11.98
10.37
8.94
7.69
6.57
5.50
4.30
2.85
1.11
-0.83
-2.79
-4.63
-6.42
-8.41
-10.89
-14.01
-17.59
-21.13
-23.98
-25.59
-25.76
-24.67
-22.74
-20.46
-18.12
-15.76
-13.19
-10.17
-6.50
-2.23
2.38
6.91
10.86
13.88
15.84
16.91
17.38
17.58
17.66
17.61
17.36
16.86
16.22
15.62
15.23
15.02
14.79
14.26
13.23
11.78
10.18
8.76
7.70
6.88
5.95
4.53
2.39
-0.49
-3.85
-7.32
-10.58
-13.44
-15.95
-18.27
-20.62
-23.07
-25.44
-27.32
-28.24
-27.81
-25.97
-22.93
-19.12
-14.97
-10.77
-6.67
-2.77
0.76
3.67
5.76
7.03
7.74
8.33
9.26
10.80
12.93
15.47
18.10
20.57
22.68
24.26
25.13
25.07
23.92
21.61
18.24
14.03
9.25
4.17
-0.91
-5.63
-9.60
-12.42
-13.93
-14.23
-13.71
-12.93
-12.37
-12.37
-13.08
-14.54
-16.68
-19.33
-22.11
-24.41
-25.51
-24.87
-22.35
-18.35
-13.62
-8.93
-4.78
-1.24
1.95
5.09
8.31
11.45
14.20
16.25
17.45
17.87
17.61
16.68
14.93
12.23
8.59
4.39
0.36
-2.70
-4.18
-3.93
-2.39
-0.38
1.26
1.92
1.41
0.05
-1.59
-2.84
-3.23
-2.68
-1.54
-0.51
-0.37
-1.79
-5.03
-9.95
-15.96
-22.21
-27.68
-31.41
-32.71
-31.37
-27.83
-23.09
-18.34
-14.51
-11.83
-9.86
-7.81
-5.09
-1.63
2.11
5.47
8.06
9.85
11.10
12.04
12.60
12.52
11.56
9.89
8.11
7.08
7.42
9.17
11.70
13.94
14.85
13.85
11.07
7.26
3.42
0.43
-1.25
-1.76
-1.57
-1.31
-1.48
-2.40
-4.15
-6.71
-9.94
-13.51
-16.88
-19.39
-20.38
-19.52
-16.93
-13.22
-9.23
-5.69
-2.98
-0.98
0.74
2.67
5.12
7.94
10.68
12.75
13.81
13.94
13.61
13.51
14.08
15.37
16.94
18.18
18.64
18.17
16.99
15.41
13.70
11.94
10.09
8.17
6.24
4.37
2.64
1.01
-0.62
-2.34
-4.32
-6.76
-9.81
-13.40
-17.11
-20.16
-21.71
-21.32
-19.30
-16.72
-14.96
-14.99
-16.87
-19.68
-22.08
-22.97
-22.11
-20.08
-17.85
-16.25
-15.57
-15.54
-15.65
-15.39
-14.47
-12.77
-10.36
-7.42
-4.24
-1.19
1.38
3.26
4.35
4.66
4.23
3.08
1.33
-0.74
-2.72
-4.29
-5.44
-6.58
-8.38
-11.37
-15.53
-20.17
-24.22
-26.67
-27.08
-25.67
-23.10
-20.02
-16.73
-13.17
-9.13
-4.46
0.72
6.08
11.23
15.80
19.47
21.90
22.83
22.16
20.06
16.96
13.31
9.32
4.90
-0.16
-5.84
-11.76
-17.16
-21.28
-23.67
-24.33
-23.66
-22.20
-20.53
-19.10
-18.28
-18.16
-18.57
-19.03
-19.04
-18.36
-17.31
-16.68
-17.22
-19.18
-21.86
-23.81
-23.46
-19.86
-13.15
-4.47
4.56
12.51
18.61
22.75
25.26
26.54
26.89
26.59
25.98
25.50
25.50
26.05
26.77
26.94
25.82
22.99
18.56
13.12
7.43
2.18
-2.26
-5.82
-8.68
-11.16
-13.60
-16.20
-18.90
-21.38
-23.06
-23.31
-21.68
-18.04
-12.62
-5.86
1.79
9.89
17.95
25.33
31.21
34.83
35.83
34.48
31.66
28.45
25.67
23.50
21.57
19.32
16.51
13.46
10.89
9.42
9.19
9.75
10.36
10.47
10.02
9.35
8.74
8.00
6.44
3.20
-2.16
-9.31
-17.12
-24.28
-29.82
-33.48
-35.56
-36.48
-36.40
-35.09
-32.22
-27.66
-21.69
-14.84
-7.64
-0.42
6.64
13.30
19.13
23.57
26.30
27.46
27.71
27.92
28.64
29.77
30.52
29.85
27.00
22.01
15.66
9.20
3.80
0.08
-1.98
-2.88
-3.27
-3.59
-3.97
-4.33
-4.51
-4.50
-4.50
-4.83
-5.88
-7.94
-11.11
-15.24
-19.89
-24.30
-27.57
-28.80
-27.45
-23.51
-17.54
-10.43
-3.07
3.96
10.44
16.40
21.87
26.69
30.57
33.21
34.52
34.69
34.10
33.20
32.33
31.62
30.98
30.23
29.14
27.59
25.54
23.15
20.64
18.23
16.12
14.41
13.12
12.26
11.82
11.70
11.63
11.18
9.90
7.46
3.93
-0.33
-4.75
-8.88
-12.48
-15.57
-18.13
-19.86
-20.17
-18.44
-14.36
-8.29
-1.18
5.77
11.54
15.70
18.33
19.86
20.59
20.66
20.02
18.72
17.03
15.45
14.49
14.42
15.19
16.42
17.65
18.43
18.50
17.81
16.49
14.85
13.24
11.92
11.03
10.49
10.14
9.89
9.78
9.97
10.49
11.07
11.13
9.92
6.99
2.49
-2.71
-7.32
-10.18
-10.73
-9.31
-7.01
-5.14
-4.66
-5.75
-7.70
-9.36
-9.66
-8.19
-5.36
-2.18
0.29
1.44
1.34
0.61
0.03
0.08
0.81
1.84
2.65
2.83
2.21
0.85
-1.10
-3.47
-6.13
-9.00
-11.97
-14.80
-17.17
-18.70
-19.10
-18.29
-16.51
-14.25
-12.18
-10.87
-10.58
-11.21
-12.29
-13.24
-13.57
-13.06
-11.78
-10.05
-8.18
-6.48
-5.10
-4.07
-3.26
-2.47
-1.36
0.41
3.08
6.65
10.83
15.06
18.64
20.98
21.71
20.81
18.46
15.00
10.72
5.91
0.89
-3.87
-7.68
-9.83
-9.81
-7.57
-3.71
0.75
4.69
7.20
7.86
6.69
4.05
0.47
-3.44
-7.00
-9.62
-10.90
-10.89
-10.03
-9.04
-8.45
-8.32
-8.21
-7.37
-5.25
-1.83
2.31
6.20
8.97
10.08
9.51
7.53
4.54
0.94
-2.89
-6.50
-9.37
-10.99
-11.11
-9.82
-7.67
-5.47
-4.02
-3.77
-4.70
-6.28
-7.82
-8.80
-9.12
-9.12
-9.28
-9.82
-10.52
-10.75
-9.92
-7.89
-5.18
-2.71
-1.38
-1.52
-2.71
-4.00
-4.43
-3.46
-1.19
1.82
4.93
7.75
10.30
12.73
15.16
17.36
18.88
19.25
18.27
16.23
13.76
11.66
10.47
10.29
10.76
11.28
11.30
10.59
9.24
7.59
6.01
4.64
3.28
1.58
-0.85
-4.06
-7.65
-10.91
-13.05
-13.56
-12.50
-10.43
-8.08
-6.06
-4.53
-3.28
-1.96
-0.38
1.39
3.07
4.39
5.30
5.91
6.40
6.85
7.18
7.28
7.11
6.85
6.71
6.87
7.25
7.61
7.65
7.27
6.58
5.85
5.36
5.25
5.50
5.89
6.04
5.54
4.00
1.28
-2.31
-5.96
-8.53
-9.01
-7.09
-3.37
0.81
3.98
5.32
5.02
4.09
3.70
4.46
6.07
7.59
8.09
7.21
5.46
3.85
3.30
4.10
5.76
7.31
7.87
7.08
5.27
3.23
1.71
1.04
1.00
1.06
0.75
-0.06
-1.10
-2.05
-2.75
-3.39
-4.32
-5.66
-7.12
-8.04
-7.81
-6.24
-3.78
-1.18
0.97
2.61
4.27
6.56
9.70
13.23
16.19
17.75
17.69
16.63
15.60
15.44
16.29
17.49
18.01
17.12
14.83
11.87
9.23
7.65
7.19
7.28
7.09
6.00
3.87
1.03
-2.04
-5.08
-8.20
-11.73
-15.84
-20.23
-24.04
-26.13
-25.69
-22.66
-17.85
-12.56
-7.98
-4.67
-2.45
-0.75
0.88
2.43
3.46
3.54
2.59
1.06
-0.27
-0.76
-0.27
0.75
1.50
1.25
-0.22
-2.63
-5.32
-7.65
-9.32
-10.48
-11.63
-13.24
-15.60
-18.65
-22.18
-25.92
-29.72
-33.44
-36.78
-39.24
-40.20
-39.24
-36.40
-32.27
-27.77
-23.70
-20.35
-17.42
-14.31
-10.62
-6.46
-2.48
0.46
1.78
1.45
0.07
-1.53
-2.59
-2.76
-2.23
-1.52
-1.22
-1.82
-3.48
-6.10
-9.36
-12.93
-16.59
-20.29
-24.07
-27.91
-31.70
-35.19
-38.20
-40.68
-42.77
-44.61
-46.13
-46.92
-46.38
-44.02
-39.72
-33.93
-27.40
-20.93
-14.90
-9.28
-3.75
1.90
7.57
12.82
17.08
20.03
21.71
22.44
22.68
22.68
22.41
21.69
20.37
18.45
16.19
13.89
11.69
9.48
6.99
4.00
0.55
-3.02
-6.31
-9.04
-11.29
-13.39
-15.71
-18.44
-21.34
-23.87
-25.35
-25.32
-23.79
-21.28
-18.60
-16.51
-15.30
-14.63
-13.62
-11.19
-6.54
0.47
9.18
18.44
27.01
33.97
38.92
41.82
42.80
41.87
39.06
34.47
28.55
22.14
16.20
11.51
8.38
6.68
6.10
6.48
7.96
10.73
14.56
18.46
20.80
19.90
14.90
6.21
-4.43
-14.79
-22.98
-28.18
-30.65
-31.19
-30.43
-28.54
-25.32
-20.77
-15.51
-10.76
-7.74
-6.89
-7.41
-7.49
-5.15
0.80
10.08
20.96
31.05
38.18
41.30
40.68
37.64
33.90
30.85
29.17
28.85
29.34
30.06
30.58
30.78
30.66
30.26
29.54
28.42
26.90
25.05
22.94
20.58
17.80
14.40
10.23
5.37
0.12
-5.16
-10.20
-14.95
-19.48
-23.84
-27.93
-31.49
-34.14
-35.59
-35.60
-34.04
-30.82
-25.87
-19.21
-11.06
-1.93
7.41
16.10
23.31
28.40
30.98
30.92
28.46
24.25
19.39
15.23
12.91
13.03
15.32
18.77
22.12
24.39
25.30
25.19
24.68
24.23
23.86
23.35
22.44
21.15
19.71
18.39
17.23
16.01
14.42
12.23
9.53
6.63
3.83
1.27
-1.15
-3.69
-6.59
-9.90
-13.48
-16.97
-19.87
-21.69
-21.99
-20.52
-17.38
-12.93
-7.79
-2.63
1.96
5.64
8.32
10.15
11.46
12.60
13.94
15.69
17.87
20.32
22.73
24.71
25.92
26.18
25.46
23.95
21.99
19.99
18.32
17.19
16.57
16.15
15.46
14.02
11.57
8.16
4.24
0.54
-2.28
-3.87
-4.40
-4.58
-5.33
-7.36
-10.86
-15.35
-19.83
-23.18
-24.55
-23.61
-20.68
-16.55
-12.17
-8.40
-5.72
-4.12
-3.22
-2.49
-1.55
-0.32
0.97
2.01
2.68
3.14
3.75
4.82
6.30
7.82
8.82
8.90
8.06
6.69
5.32
4.38
3.97
3.86
3.70
3.22
2.26
0.82
-1.07
-3.34
-5.89
-8.60
-11.35
-14.08
-16.84
-19.66
-22.46
-24.90
-26.34
-26.15
-23.88
-19.58
-13.85
-7.54
-1.41
4.24
9.61
15.20
21.39
28.15
34.95
41.02
45.75
49.06
51.41
53.58
56.25
59.71
63.74
67.83
71.47
74.42
76.79
78.83
80.64
81.87
81.58
78.52
71.63
60.67
46.58
31.41
17.70
7.65
2.37
1.57
3.81
7.11
9.55
9.81
7.33
2.29
-4.53
-12.04
-19.03
-24.43
-27.50
-27.93
-25.88
-21.87
-16.74
-11.51
-7.18
-4.54
-3.95
-5.24
-7.78
-10.64
-13.03
-14.52
-15.26
-15.77
-16.65
-18.26
-20.57
-23.30
-26.15
-28.94
-31.47
-33.25
-33.28
-30.25
-23.26
-12.56
-0.09
10.86
16.71
14.87
4.71
-12.25
-33.05
-54.38
-73.48
-88.59
-98.84
-103.93
-103.89
-99.04
-90.21
-78.84
-66.90
-56.41
-48.94
-45.18
-44.98
-47.72
-52.82
-60.00
-69.13
-79.66
-89.99
-97.51
-99.13
-92.56
-77.48
-56.07
-32.51
-11.62
2.85
9.39
8.90
3.85
-3.04
-9.77
-15.32
-19.26
-21.17
-20.46
-16.69
-10.14
-2.08
5.52
10.85
13.13
13.01
12.20
12.70
16.03
22.75
32.72
45.48
60.61
77.74
96.26
115.07
132.49
146.65
155.89
159.36
157.25
150.71
141.50
131.41
121.71
112.84
104.46
95.89
86.74
77.37
68.83
62.26
58.20
55.93
53.59
48.85
39.91
26.24
8.75
-10.70
-30.01
-47.58
-62.65
-75.29
-86.04
-95.46
-103.68
-110.10
-113.52
-112.48
-105.77
-92.88
-74.26
-51.52
-27.62
-6.75
6.12
6.58
-7.46
-34.33
-68.41
-101.80
-127.20
-140.64
-142.55
-136.64
-127.42
-117.85
-108.42
-98.28
-87.05
-76.15
-68.49
-66.79
-71.57
-80.40
-88.87
-92.71
-89.98
-81.90
-71.99
-63.87
-59.09
-56.15
-51.26
-40.31
-20.97
6.24
38.26
70.75
99.61
121.68
134.72
137.05
127.62
106.81
77.36
44.82
16.34
-1.91
-7.48
-3.04
4.74
8.50
3.86
-8.47
-23.32
-34.11
-36.57
-30.80
-20.86
-12.05
-7.88
-8.29
-10.12
-9.26
-2.96
8.90
24.17
39.96
54.16
66.08
76.08
84.43
90.55
92.88
89.64
79.75
63.55
42.85
20.38
-0.86
-18.21
-29.67
-34.16
-31.76
-23.90
-13.19
-2.90
3.99
5.64
1.87
-6.05
-16.03
-25.89
-33.83
-38.53
-39.27
-35.98
-29.58
-22.07
-16.16
-14.43
-18.19
-27.01
-38.76
-50.52
-59.59
-64.20
-63.58
-57.63
-46.53
-30.96
-12.57
5.59
19.34
24.67
19.36
4.44
-15.63
-34.20
-44.70
-42.82
-27.85
-2.53
28.13
58.33
82.75
97.14
98.64
86.34
61.92
29.88
-3.16
-30.11
-45.73
-48.31
-39.80
-24.59
-7.48
7.95
19.78
27.22
30.00
28.26
23.22
17.44
14.03
14.74
18.23
19.93
14.07
-3.08
-30.60
-62.79
-91.51
-109.88
-114.94
-108.03
-93.11
-74.43
-55.14
-37.37
-23.03
-14.46
-13.98
-22.57
-38.73
-58.18
-74.66
-81.77
-75.13
-54.07
-22.31
12.90
43.00
61.08
64.29
54.74
38.41
22.54
12.83
11.50
17.12
25.80
32.87
34.42
28.28
14.58
-4.04
-22.50
-33.98
-31.59
-10.68
28.96
81.77
137.25
182.78
207.64
206.71
182.02
141.62
96.37
56.17
27.33
11.87
8.44
14.10
25.47
39.41
53.04
63.80
69.66
69.46
63.08
51.36
36.08
19.89
6.04
-2.37
-3.99
-0.70
2.05
-3.14
-22.52
-57.93
-105.25
-155.36
-197.37
-222.19
-225.04
-205.94
-168.75
-119.67
-66.04
-15.33
25.89
53.38
66.38
67.97
63.89
60.35
61.63
68.65
79.31
90.15
98.45
103.52
106.50
108.87
110.73
109.98
103.24
87.85
64.05
36.04
10.89
-4.07
-4.46
8.96
30.12
49.77
58.90
52.18
30.04
-1.46
-32.71
-53.76
-57.57
-42.02
-10.41
29.93
69.88
101.14
118.12
118.74
104.07
77.33
42.71
4.50
-33.22
-66.72
-92.76
-109.15
-115.39
-113.06
-105.26
-95.49
-86.36
-78.92
-72.98
-67.93
-63.46
-59.43
-55.12
-48.43
-36.01
-14.49
17.48
57.54
99.37
134.01
152.28
147.50
117.71
66.88
4.64
-55.69
-100.51
-119.93
-110.97
-78.45
-33.28
11.26
43.82
57.98
53.27
34.10
7.76
-17.76
-35.77
-42.39
-37.64
-25.74
-14.08
-10.63
-20.85
-45.34
-79.59
-115.91
-146.66
-167.10
-176.48
-177.00
-171.61
-162.12
-148.41
-128.92
-101.92
-66.81
-25.00
19.68
61.19
92.41
107.13
102.47
80.50
48.27
15.55
-8.62
-19.23
-16.60
-5.42
7.85
17.82
21.66
19.16
11.98
2.67
-5.78
-10.35
-8.46
1.03
16.89
35.24
50.56
57.75
54.62
43.27
29.92
22.90
29.94
55.58
99.80
157.87
221.48
280.75
326.53
352.66
357.34
343.18
315.79
281.32
244.14
205.68
165.12
121.24
74.37
27.24
-15.72
-50.01
-72.68
-83.26
-83.62
-77.34
-68.88
-62.64
-62.24
-69.77
-85.26
-106.37
-128.82
-147.52
-158.06
-158.13
-148.21
-131.21
-111.32
-92.53
-77.65
-67.98
-63.66
-64.31
-69.36
-78.04
-89.25
-101.40
-112.71
-121.42
-125.94
-124.87
-116.97
-101.63
-79.41
-52.60
-24.96
-0.66
17.17
27.53
31.66
32.11
31.43
31.18
31.82
33.16
34.81
36.31
36.88
35.22
29.85
19.90
5.86
-10.18
-24.99
-35.35
-39.14
-36.01
-27.40
-15.95
-4.57
4.39
9.71
11.38
10.25
7.48
4.13
0.96
-1.48
-2.68
-2.23
-0.06
3.21
6.30
7.70
6.42
2.67
-2.00
-5.12
-4.15
2.59
15.36
32.87
52.59
71.41
86.47
96.03
99.99
99.94
98.51
98.29
100.70
105.47
110.87
114.72
115.43
112.71
107.38
100.63
93.24
85.14
75.76
64.76
52.52
40.15
28.74
18.52
8.39
-3.60
-19.17
-38.62
-60.48
-82.08
-100.91
-115.79
-127.19
-136.61
-145.44
-154.04
-161.56
-166.50
-167.37
-163.29
-153.99
-139.63
-120.62
-97.75
-72.32
-46.30
-21.95
-1.38
14.06
23.99
29.06
30.56
30.12
29.31
29.27
30.51
32.85
35.56
37.58
37.86
35.59
30.37
22.25
11.71
-0.48
-13.45
-26.38
-38.65
-49.79
-59.40
-67.01
-72.04
-73.94
-72.51
-68.13
-61.70
-54.42
-47.33
-40.99
-35.50
-30.69
-26.36
-22.46
-18.96
-15.69
-12.21
-7.97
-2.62
3.74
10.56
17.07
22.74
27.53
31.89
36.30
40.88
45.18
48.40
49.78
48.99
46.14
41.59
35.65
28.40
19.95
10.72
1.62
-6.10
-11.30
-13.47
-12.94
-10.62
-7.60
-4.82
-3.00
-2.80
-5.01
-10.45
-19.45
-31.43
-44.59
-56.37
-64.27
-66.80
-64.00
-57.18
-48.15
-38.38
-28.59
-18.89
-9.29
-0.21
7.46
12.68
14.79
13.75
10.24
5.35
0.33
-3.65
-5.77
-5.72
-3.89
-1.26
0.97
2.07
2.26
2.66
4.74
9.41
16.36
24.11
30.71
34.72
35.78
34.53
31.99
28.73
24.56
18.79
10.99
1.70
-7.43
-14.21
-17.02
-15.78
-12.18
-8.93
-8.30
-10.88
-15.19
-18.56
-18.80
-15.58
-10.67
-6.87
-6.26
-8.89
-12.79
-15.17
-14.22
-10.17
-5.03
-1.24
-0.05
-0.78
-1.17
1.20
7.56
17.23
27.99
37.27
43.32
45.93
46.14
45.53
45.21
45.36
45.25
43.82
40.45
35.38
29.71
24.80
21.57
19.97
19.03
17.44
14.38
10.00
5.50
2.43
1.96
4.13
7.91
11.72
14.29
15.43
16.04
17.65
21.57
28.13
36.47
44.88
51.58
55.55
56.92
56.88
56.92
58.00
59.88
61.12
59.71
54.12
44.20
31.51
18.75
8.66
2.79
0.98
1.63
2.65
2.51
0.75
-2.25
-5.93
-10.23
-15.61
-22.66
-31.40
-40.86
-49.38
-55.37
-58.14
-58.34
-57.61
-57.76
-59.76
-63.33
-66.97
-68.80
-67.39
-62.36
-54.49
-45.25
-36.17
-28.25
-21.87
-16.94
-13.18
-10.44
-8.57
-7.39
-6.56
-5.70
-4.49
-2.93
-1.32
-0.07
0.55
0.60
0.35
0.14
0.15
0.32
0.43
0.35
0.08
-0.25
-0.48
-0.59
-0.67
-0.83
-1.15
-1.63
-2.33
-3.45
-5.37
-8.42
-12.71
-17.85
-23.04
-27.27
-29.68
-29.81
-27.63
-23.41
-17.62
-10.82
-3.70
2.90
8.26
11.92
13.99
15.12
16.23
17.98
20.45
23.12
25.18
26.15
26.17
26.02
26.64
28.51
31.14
33.17
32.91
29.10
21.59
11.56
1.16
-7.37
-12.46
-13.82
-12.31
-9.47
-6.73
-4.92
-4.15
-4.10
-4.52
-5.44
-7.12
-9.70
-12.77
-15.39
-16.43
-15.14
-11.72
-7.25
-3.22
-0.70
0.21
0.36
0.99
2.89
5.91
9.03
10.93
10.79
8.76
5.92
3.72
3.22
4.61
7.10
9.38
10.25
9.24
6.85
4.26
2.82
3.27
5.46
8.34
10.49
10.80
8.90
5.31
1.01
-3.00
-6.16
-8.41
-10.02
-11.28
-12.15
-12.31
-11.22
-8.45
-3.92
2.11
9.07
16.37
23.57
30.25
35.91
39.67
40.43
37.25
30.02
19.89
9.19
0.61
-3.86
-3.86
-0.77
3.08
5.45
5.29
2.94
-0.35
-3.26
-5.19
-6.41
-7.75
-9.94
-13.26
-17.34
-21.48
-25.09
-28.01
-30.57
-33.40
-37.02
-41.42
-45.95
-49.39
-50.47
-48.39
-43.35
-36.58
-30.08
-25.76
-24.69
-26.57
-29.93
-32.79
-33.65
-32.20
-29.36
-26.62
-25.07
-24.66
-24.22
-22.29
-18.14
-12.46
-7.26
-4.96
-7.16
-13.90
-23.57
-33.60
-41.46
-45.48
-45.23
-41.42
-35.36
-28.50
-21.99
-16.53
-12.37
-9.45
-7.53
-6.38
-5.71
-5.16
-4.24
-2.53
0.21
3.75
7.41
10.43
12.34
13.37
14.42
16.53
20.25
25.20
30.06
33.21
33.54
31.01
26.66
22.07
18.50
16.27
14.78
12.94
9.90
5.55
0.60
-3.89
-7.00
-8.47
-8.74
-8.75
-9.44
-11.27
-14.06
-17.22
-20.07
-22.38
-24.37
-26.46
-28.84
-30.96
-31.68
-29.71
-24.43
-16.41
-7.31
0.88
6.79
10.33
12.53
14.70
17.48
20.38
22.30
22.35
20.77
18.95
18.63
20.78
24.83
28.81
30.45
28.45
23.17
16.48
10.71
7.51
7.19
8.86
11.02
12.43
12.55
11.53
9.90
8.09
6.19
3.87
0.74
-3.32
-7.87
-11.89
-14.16
-13.92
-11.34
-7.53
-4.10
-2.27
-2.22
-3.03
-3.22
-1.63
1.88
6.45
10.81
13.99
15.79
16.71
17.41
18.29
19.27
20.04
20.46
20.73
21.26
22.36
23.93
25.48
26.33
26.01
24.50
22.27
19.99
18.29
17.45
17.33
17.44
17.18
16.11
14.26
12.16
10.74
10.94
13.28
17.52
22.69
27.55
31.05
32.80
33.07
32.45
31.37
29.87
27.65
24.49
20.65
16.93
14.37
13.69
14.76
16.64
17.92
17.47
14.98
11.14
7.29
4.73
4.05
4.79
5.73
5.45
3.10
-1.22
-6.57
-11.69
-15.59
-17.96
-19.12
-19.58
-19.60
-18.95
-17.04
-13.39
-8.11
-2.04
3.47
7.24
8.82
8.82
8.55
9.28
11.51
14.56
17.00
17.43
15.40
11.71
8.04
6.00
6.12
7.66
8.98
8.59
6.04
2.24
-1.15
-2.63
-1.82
0.29
1.83
0.97
-3.07
-9.66
-17.02
-23.06
-26.27
-26.33
-24.01
-20.64
-17.36
-14.57
-11.93
-8.81
-4.91
-0.79
2.34
3.07
0.69
-4.39
-10.60
-15.87
-18.56
-18.13
-15.31
-11.70
-8.90
-7.82
-8.37
-9.72
-10.90
-11.46
-11.65
-12.23
-13.88
-16.75
-20.28
-23.53
-25.74
-26.76
-27.10
-27.51
-28.47
-29.70
-30.34
-29.41
-26.46
-21.91
-16.81
-12.27
-8.79
-6.11
-3.54
-0.53
2.72
5.34
6.20
4.66
1.02
-3.45
-7.03
-8.35
-6.96
-3.50
0.61
3.93
5.58
5.52
4.45
3.22
2.34
1.73
0.86
-0.84
-3.49
-6.62
-9.44
-11.19
-11.59
-10.89
-9.64
-8.37
-7.16
-5.64
-3.16
0.85
6.41
12.86
19.08
23.87
26.50
26.99
26.04
24.61
23.44
22.79
22.44
21.98
21.17
20.02
18.81
17.81
17.11
16.63
16.09
15.16
13.50
10.92
7.34
2.85
-2.28
-7.76
-13.31
-18.67
-23.54
-27.45
-29.75
-29.83
-27.41
-22.85
-17.16
-11.65
-7.39
-4.75
-3.21
-1.74
0.72
4.64
9.64
14.68
18.52
20.29
19.94
18.16
16.08
14.66
14.28
14.63
15.01
14.85
14.03
12.96
12.24
12.24
12.81
13.37
13.26
12.19
10.32
8.14
6.01
3.89
1.25
-2.56
-7.81
-13.98
-19.71
-23.35
-23.61
-20.24
-14.10
-6.92
-0.39
4.55
7.96
10.71
13.76
17.56
21.76
25.48
27.87
28.70
28.45
27.99
28.04
28.66
29.29
29.09
27.58
24.97
22.14
20.10
19.35
19.51
19.47
18.07
14.79
10.16
5.51
2.30
1.29
2.15
3.58
3.87
1.64
-3.59
-11.29
-20.01
-27.89
-33.22
-34.93
-32.93
-28.08
-21.81
-15.60
-10.43
-6.56
-3.65
-1.18
1.17
3.41
5.25
6.45
6.88
6.73
6.27
5.68
4.88
3.52
1.22
-2.02
-5.57
-8.16
-8.42
-5.58
-0.07
6.53
12.02
14.71
14.22
11.56
8.48
6.29
5.15
4.01
1.44
-3.41
-10.09
-17.05
-22.43
-25.01
-24.71
-22.51
-19.77
-17.37
-15.40
-13.24
-10.14
-5.81
-0.67
4.40
8.59
11.76
14.49
17.72
22.13
27.58
33.06
37.21
39.00
38.29
35.90
33.07
30.85
29.60
29.02
28.45
27.40
25.73
23.70
21.62
19.67
17.77
15.75
13.44
10.83
7.97
4.89
1.48
-2.48
-7.25
-12.89
-19.17
-25.43
-30.73
-34.14
-35.08
-33.59
-30.37
-26.40
-22.46
-18.77
-14.91
-10.19
-4.23
2.55
8.96
13.47
15.02
13.60
10.42
7.35
6.16
7.69
11.49
16.12
19.91
21.70
21.30
19.46
17.26
15.46
14.09
12.53
10.08
6.52
2.45
-1.00
-2.82
-2.77
-1.72
-1.18
-2.63
-6.61
-12.39
-18.26
-22.23
-23.00
-20.43
-15.58
-10.04
-5.19
-1.60
1.03
3.58
6.81
10.91
15.35
19.12
21.35
21.80
20.95
19.77
19.14
19.39
20.08
20.36
19.44
17.11
13.91
10.73
8.38
7.07
6.37
5.50
3.87
1.41
-1.36
-3.60
-4.71
-4.58
-3.72
-2.96
-3.07
-4.42
-6.88
-9.92
-12.89
-15.20
-16.45
-16.45
-15.23
-12.92
-9.82
-6.32
-2.88
0.13
2.51
4.31
5.75
7.15
8.80
10.82
13.11
15.35
17.04
17.68
16.98
15.05
12.51
10.26
9.11
9.32
10.53
11.90
12.60
12.30
11.37
10.56
10.53
11.38
12.52
12.99
12.01
9.42
5.79
2.09
-0.83
-2.71
-3.93
-5.19
-7.03
-9.35
-11.35
-11.96
-10.37
-6.59
-1.53
3.42
7.03
8.76
8.95
8.55
8.48
9.16
10.31
11.16
11.00
9.66
7.61
5.80
5.05
5.63
6.97
8.05
7.95
6.38
3.88
1.52
0.23
0.33
1.33
2.24
2.20
0.87
-1.35
-3.66
-5.38
-6.37
-7.15
-8.54
-11.17
-14.96
-19.09
-22.26
-23.42
-22.26
-19.41
-16.07
-13.35
-11.69
-10.67
-9.38
-7.06
-3.66
0.05
2.81
3.57
2.00
-1.31
-5.14
-8.16
-9.52
-9.14
-7.64
-6.01
-5.10
-5.35
-6.66
-8.49
-10.28
-11.62
-12.51
-13.25
-14.25
-15.80
-17.86
-20.11
-22.13
-23.68
-24.86
-26.05
-27.65
-29.72
-31.85
-33.24
-33.10
-31.06
-27.47
-23.16
-19.06
-15.68
-12.93
-10.31
-7.36
-4.03
-0.78
1.66
2.75
2.50
1.43
0.35
-0.11
0.17
0.85
1.36
1.28
0.60
-0.32
-0.99
-1.12
-0.83
-0.66
-1.26
-3.10
-6.16
-10.01
-13.96
-17.47
-20.33
-22.68
-24.83
-26.86
-28.53
-29.28
-28.54
-25.99
-21.80
-16.54
-10.97
-5.63
-0.71
3.93
8.48
12.89
16.74
19.41
20.41
19.80
18.27
16.90
16.60
17.63
19.42
20.85
20.86
19.09
16.07
12.99
11.05
10.89
12.27
14.23
15.57
15.37
13.39
9.98
5.89
1.82
-1.81
-4.99
-7.89
-10.60
-12.87
-14.07
-13.42
-10.49
-5.51
0.48
5.99
9.71
11.11
10.64
9.48
8.87
9.46
11.13
13.18
14.85
15.89
16.58
17.45
18.82
20.46
21.60
21.34
19.23
15.55
11.32
7.83
6.05
6.19
7.60
9.21
10.02
9.64
8.32
6.62
4.89
2.92
0.01
-4.56
-10.88
-18.10
-24.60
-28.69
-29.42
-26.98
-22.63
-17.99
-14.20
-11.40
-8.84
-5.55
-1.07
4.06
8.56
11.05
10.93
8.70
5.78
3.62
3.14
4.25
6.16
7.89
8.89
9.13
8.93
8.55
7.95
6.81
4.86
2.12
-0.98
-3.81
-5.85
-7.07
-7.88
-9.03
-11.15
-14.51
-18.85
-23.42
-27.28
-29.60
-29.96
-28.37
-25.34
-21.61
-17.96
-14.90
-12.52
-10.52
-8.37
-5.66
-2.35
1.13
4.09
6.00
6.76
6.79
6.80
7.30
8.36
9.56
10.35
10.43
9.97
9.46
9.30
9.50
9.56
8.72
6.47
2.94
-1.14
-4.68
-6.80
-7.22
-6.41
-5.36
-5.16
-6.51
-9.41
-13.12
-16.47
-18.25
-17.78
-15.06
-10.75
-5.79
-0.95
3.38
7.21
10.65
13.66
15.97
17.27
17.50
17.02
16.49
16.56
17.39
18.67
19.69
19.89
19.16
17.96
16.97
16.66
17.01
17.43
17.14
15.60
12.81
9.35
6.06
3.61
2.16
1.32
0.33
-1.47
-4.32
-7.88
-11.38
-14.03
-15.42
-15.62
-15.12
-14.40
-13.58
-12.28
-9.91
-6.11
-1.27
3.54
6.92
7.87
6.30
3.14
-0.08
-1.99
-1.92
-0.24
1.97
3.57
3.87
2.97
1.57
0.55
0.45
1.18
2.11
2.46
1.76
0.05
-2.28
-4.82
-7.59
-10.92
-15.08
-19.88
-24.38
-27.23
-27.34
-24.45
-19.33
-13.44
-8.19
-4.40
-2.15
-1.07
-0.82
-1.41
-3.19
-6.51
-11.42
-17.39
-23.44
-28.35
-31.04
-30.99
-28.41
-24.25
-19.86
-16.53
-14.99
-15.24
-16.64
-18.32
-19.72
-20.78
-21.93
-23.73
-26.40
-29.52
-32.19
-33.36
-32.26
-28.86
-23.81
-18.14
-12.76
-8.05
-3.73
0.83
6.18
12.29
18.37
23.29
26.06
26.41
24.98
23.09
22.02
22.41
24.00
25.77
26.60
25.83
23.65
20.92
18.70
17.66
17.75
18.31
18.43
17.46
15.21
11.98
8.21
4.30
0.49
-2.96
-5.55
-6.55
-5.17
-1.04
5.45
13.21
20.76
26.91
31.22
34.04
36.13
38.17
40.28
41.99
42.68
41.91
39.82
37.09
34.60
32.95
32.16
31.65
30.47
27.84
23.60
18.28
12.90
8.47
5.46
3.61
2.02
-0.39
-4.41
-10.23
-17.43
-25.12
-32.23
-37.80
-41.26
-42.50
-41.87
-39.96
-37.25
-33.92
-29.76
-24.48
-18.11
-11.24
-4.94
-0.22
2.40
3.22
3.13
3.07
3.42
3.91
3.75
2.20
-0.87
-4.92
-8.97
-12.17
-14.24
-15.61
-17.08
-19.39
-22.78
-26.85
-30.84
-34.04
-36.27
-37.93
-39.74
-42.21
-45.29
-48.17
-49.68
-48.80
-45.17
-39.26
-32.09
-24.66
-17.51
-10.54
-3.32
4.37
12.15
19.02
23.88
26.11
25.98
24.59
23.29
23.11
24.21
25.95
27.33
27.55
26.46
24.57
22.67
21.29
20.27
18.83
15.97
11.09
4.53
-2.45
-8.28
-11.86
-13.23
-13.64
-14.91
-18.49
-24.68
-32.37
-39.66
-44.77
-46.79
-45.98
-43.33
-39.89
-36.19
-32.03
-26.89
-20.36
-12.59
-4.25
3.75
10.69
16.30
20.77
24.44
27.60
30.18
31.95
32.62
32.10
30.68
28.90
27.37
26.46
26.13
25.89
25.08
23.24
20.28
16.65
12.96
9.79
7.33
5.49
4.04
2.81
1.82
1.08
0.43
-0.60
-2.64
-6.17
-11.22
-17.23
-23.14
-27.63
-29.63
-28.52
-24.44
-18.17
-10.87
-3.66
2.80
8.46
13.81
19.39
25.49
31.77
37.42
41.61
43.94
44.78
45.02
45.71
47.45
50.17
53.21
55.84
57.67
58.93
60.28
62.36
65.37
68.91
72.27
74.87
76.73
78.53
81.33
85.95
92.56
100.49
108.55
115.55
120.83
124.46
127.13
129.69
132.90
137.06
142.10
147.48
152.23
154.97
153.98
147.56
134.63
115.29
91.07
64.60
38.71
15.51
-4.35
-21.62
-37.87
-54.37
-71.42
-88.01
-102.30
-112.43
-117.35
-117.29
-113.55
-107.88
-101.75
-95.83
-89.92
-83.39
-75.67
-66.72
-57.11
-47.80
-39.64
-33.08
-28.09
-24.25
-21.12
-18.36
-15.83
-13.54
-11.55
-9.93
-8.90
-8.86
-10.47
-14.43
-21.27
-30.94
-42.51
-54.37
-64.51
-71.37
-74.42
-74.41
-73.01
-72.04
-72.58
-74.53
-76.80
-78.02
-77.34
-74.89
-71.63
-68.77
-67.18
-67.03
-67.90
-69.09
-70.11
-70.70
-70.83
-70.45
-69.40
-67.57
-65.04
-62.26
-59.96
-58.88
-59.41
-61.38
-64.18
-67.02
-69.20
-70.37
-70.52
-69.88
-68.86
-67.89
-67.50
-68.02
-69.50
-71.48
-72.99
-72.94
-70.62
-66.27
-61.15
-57.13
-55.88
-57.91
-62.28
-67.01
-70.03
-70.13
-67.39
-62.76
-57.25
-51.30
-44.67
-37.13
-29.04
-21.53
-15.94
-12.98
-12.03
-11.30
-8.73
-2.94
6.03
16.96
28.09
37.89
45.51
50.66
53.30
53.36
50.80
45.75
38.85
31.35
24.97
21.59
22.78
29.37
41.20
57.24
75.92
95.72
115.73
135.75
155.94
176.28
195.92
213.17
226.15
233.65
235.79
233.82
229.26
222.82
213.92
201.17
183.62
161.81
137.97
115.05
95.19
78.61
63.61
47.85
29.91
10.29
-8.74
-24.45
-35.06
-40.68
-43.07
-44.64
-47.23
-51.38
-56.45
-61.45
-65.88
-70.23
-75.70
-83.43
-93.70
-105.46
-116.64
-124.88
-128.51
-127.12
-121.53
-113.32
-104.00
-94.51
-85.10
-75.65
-66.12
-56.82
-48.35
-41.25
-35.60
-30.99
-26.78
-22.48
-18.08
-14.00
-10.74
-8.46
-6.88
-5.39
-3.49
-1.03
1.72
4.26
6.21
7.46
8.23
8.85
9.49
10.05
10.18
9.46
7.69
5.01
1.85
-1.34
-4.27
-6.83
-8.94
-10.36
-10.67
-9.53
-7.02
-3.81
-0.96
0.75
1.36
1.87
3.71
7.90
14.33
21.81
28.64
33.56
36.36
37.88
39.41
41.96
45.81
50.56
55.54
60.30
64.85
69.52
74.66
80.30
85.90
90.46
92.69
91.37
85.73
75.76
62.30
46.90
31.46
17.72
6.86
-0.72
-5.41
-8.19
-10.42
-13.66
-19.48
-29.15
-43.42
-62.10
-84.01
-107.07
-128.73
-146.72
-159.68
-167.49
-171.22
-172.55
-173.02
-173.30
-172.91
-170.42
-164.14
-152.83
-136.43
-116.19
-94.28
-73.09
-54.47
-39.20
-26.91
-16.40
-6.16
4.96
17.29
30.08
41.71
50.16
53.74
51.78
44.85
34.59
23.11
12.24
3.16
-3.75
-8.51
-11.26
-12.03
-10.87
-8.08
-4.34
-0.60
2.25
3.72
3.92
3.45
3.11
3.51
4.80
6.69
8.70
10.56
12.44
15.02
19.15
25.38
33.59
42.83
51.61
58.47
62.53
63.93
63.70
63.32
63.99
66.04
68.78
70.88
71.04
68.71
64.26
58.70
53.03
47.65
42.16
35.74
27.80
18.44
8.63
-0.10
-6.35
-9.25
-8.87
-6.04
-2.27
0.60
0.63
-3.79
-13.52
-28.19
-46.05
-64.27
-79.75
-90.07
-94.18
-92.62
-86.92
-78.93
-70.09
-61.31
-53.21
-46.44
-41.93
-40.61
-43.02
-48.91
-57.35
-66.90
-76.13
-83.91
-89.48
-92.22
-91.58
-87.01
-78.32
-65.95
-51.18
-35.83
-21.78
-10.36
-2.14
3.02
5.56
5.85
4.05
0.26
-5.27
-12.02
-19.34
-26.66
-33.68
-40.32
-46.45
-51.64
-55.13
-56.02
-53.69
-48.03
-39.58
-29.25
-18.10
-7.03
3.22
12.07
19.02
23.73
26.07
26.32
25.15
23.51
22.45
22.87
25.29
29.78
35.88
42.75
49.45
55.19
59.59
62.68
64.72
65.94
66.35
65.74
63.90
60.83
56.88
52.79
49.51
47.99
48.96
52.70
58.74
65.76
71.79
74.73
73.12
66.75
56.82
45.51
35.17
27.52
23.21
22.05
23.31
26.30
30.58
36.02
42.54
50.00
58.05
66.20
73.91
80.66
86.02
89.72
91.57
91.55
89.85
87.03
83.98
81.78
81.28
82.74
85.57
88.47
89.95
88.90
85.15
79.47
73.23
67.74
63.73
61.09
58.96
56.09
51.21
43.35
32.09
17.59
0.49
-18.17
-37.32
-55.99
-73.60
-90.00
-105.42
-120.20
-134.34
-147.21
-157.48
-163.41
-163.61
-157.77
-147.19
-134.53
-122.96
-114.94
-111.31
-110.94
-111.32
-109.58
-103.63
-92.88
-78.25
-61.73
-45.66
-31.98
-21.87
-15.64
-12.90
-12.91
-14.83
-17.92
-21.55
-25.20
-28.40
-30.64
-31.43
-30.39
-27.31
-22.33
-15.98
-9.25
-3.47
-0.02
0.22
-2.73
-7.75
-12.83
-15.63
-14.30
-8.07
2.46
15.66
29.56
42.76
54.89
66.73
79.53
94.09
110.01
125.52
138.09
145.41
146.31
141.08
131.21
118.66
105.33
92.70
81.88
73.68
68.38
65.61
64.20
62.57
59.35
54.08
47.42
40.86
36.07
34.20
35.59
39.80
45.86
52.48
58.16
61.31
60.51
55.00
45.09
32.29
18.94
7.52
-0.24
-3.92
-4.69
-4.93
-7.49
-14.73
-27.54
-44.86
-63.86
-80.80
-92.47
-97.29
-95.98
-91.13
-86.05
-83.29
-83.66
-86.01
-88.02
-87.36
-82.75
-74.43
-63.78
-52.65
-42.61
-34.56
-28.82
-25.36
-23.93
-24.09
-25.04
-25.59
-24.45
-20.59
-13.63
-4.10
6.61
16.58
23.85
27.08
26.30
23.01
19.78
19.17
22.49
29.10
36.89
43.51
47.86
50.85
54.97
62.81
75.63
92.72
111.93
130.99
148.56
164.49
179.08
192.17
202.54
208.26
207.72
200.62
188.58
174.68
162.48
154.63
151.70
151.83
151.18
145.23
130.47
105.90
73.61
38.19
5.15
-21.13
-38.82
-48.79
-53.77
-56.86
-60.42
-65.71
-73.27
-83.38
-96.22
-111.49
-127.93
-143.20
-154.49
-159.40
-156.86
-147.32
-132.31
-113.65
-92.78
-70.60
-47.59
-24.17
-0.64
22.85
46.48
70.54
95.11
119.59
142.46
161.59
174.78
180.64
178.96
170.75
157.83
142.14
125.25
108.03
90.60
72.51
53.05
31.48
7.40
-19.10
-47.25
-75.69
-102.68
-126.54
-145.98
-160.24
-169.04
-172.36
-170.23
-162.99
-151.49
-137.31
-122.56
-109.41
-99.39
-92.98
-89.54
-87.85
-86.73
-85.53
-84.21
-83.00
-81.98
-80.85
-79.02
-75.93
-71.46
-66.11
-60.82
-56.58
-54.02
-53.23
-53.81
-55.18
-56.87
-58.53
-59.96
-60.85
-60.77
-59.23
-55.90
-50.87
-44.71
-38.36
-32.84
-28.99
-27.18
-27.37
-29.18
-31.93
-34.71
-36.63
-37.00
-35.64
-32.96
-29.79
-26.85
-24.23
-21.06
-15.79
-6.96
5.80
21.25
36.62
48.47
53.87
51.42
41.60
26.27
7.97
-11.00
-29.02
-45.03
-58.17
-67.40
-71.55
-69.81
-62.41
-50.98
-38.38
-27.88
-22.07
-22.04
-27.14
-35.43
-44.48
-52.18
-57.13
-58.84
-57.51
-53.97
-49.58
-45.90
-44.43
-45.98
-50.33
-56.07
-61.00
-62.69
-59.28
-49.99
-35.36
-17.10
2.41
20.76
36.10
47.47
54.94
59.33
61.90
63.90
66.15
68.91
71.88
74.32
75.35
74.14
70.14
63.16
53.51
41.91
29.56
17.81
7.88
0.43
-4.72
-8.43
-11.83
-15.60
-19.61
-22.84
-23.91
-21.69
-15.69
-6.15
6.22
20.44
35.28
49.11
59.89
65.45
64.25
56.08
42.44
26.13
10.34
-2.52
-11.68
-18.01
-23.41
-29.74
-38.02
-48.05
-58.79
-68.90
-77.39
-84.00
-89.08
-93.43
-97.67
-101.85
-105.13
-106.04
-103.05
-95.51
-84.10
-70.77
-57.90
-47.23
-39.19
-33.13
-28.21
-24.41
-22.79
-24.79
-30.84
-39.31
-46.47
-47.75
-39.63
-21.18
5.45
35.87
65.11
89.21
106.16
115.87
119.47
118.36
113.72
106.41
97.26
87.32
77.94
70.42
65.57
63.38
62.91
62.66
61.09
57.31
51.39
44.32
37.41
31.60
26.99
22.88
18.43
13.40
8.53
5.30
4.99
7.86
12.95
18.65
23.64
27.73
31.73
36.75
43.24
50.55
57.19
61.67
63.21
62.02
58.92
54.66
49.48
43.13
35.23
25.73
15.23
4.78
-4.24
-10.46
-12.73
-10.34
-3.23
7.74
20.80
33.63
43.96
50.29
52.38
51.14
48.02
44.21
39.83
33.84
24.56
10.66
-7.92
-29.44
-50.81
-68.50
-79.73
-83.36
-80.06
-71.95
-61.78
-52.15
-44.80
-40.33
-38.11
-36.47
-33.22
-26.34
-14.75
1.16
19.57
37.78
53.08
63.55
68.41
67.86
62.74
54.13
43.33
31.93
21.71
14.35
10.73
10.63
12.68
15.01
16.08
15.37
13.36
11.05
9.11
7.50
5.57
2.57
-1.82
-7.24
-12.90
-17.91
-21.60
-23.45
-23.10
-20.27
-15.13
-8.52
-1.98
2.73
4.44
3.13
0.10
-2.66
-3.43
-1.59
2.05
5.67
7.30
5.71
0.77
-6.65
-15.26
-23.99
-32.30
-40.09
-47.33
-53.77
-58.92
-62.40
-64.32
-65.39
-66.49
-67.94
-68.83
-67.08
-60.19
-46.52
-26.32
-2.08
22.24
42.57
56.25
62.83
63.83
61.77
58.89
56.41
54.51
52.94
51.70
51.30
52.33
54.84
57.90
59.89
59.35
55.92
50.63
45.53
42.40
41.72
42.34
42.12
39.12
32.63
23.44
13.25
3.76
-4.04
-9.89
-13.84
-15.79
-15.54
-13.21
-9.82
-7.31
-7.97
-13.39
-23.67
-37.14
-51.02
-62.40
-69.14
-70.40
-66.56
-58.91
-49.16
-38.98
-29.72
-22.10
-16.16
-11.33
-6.76
-1.79
3.58
8.51
11.57
11.44
7.54
0.52
-7.88
-15.45
-20.24
-21.33
-18.99
-14.49
-9.57
-5.94
-4.82
-6.74
-11.52
-18.29
-25.73
-32.39
-37.19
-39.75
-40.58
-40.77
-41.61
-43.92
-47.77
-52.42
-56.65
-59.38
-60.22
-59.73
-59.11
-59.71
-62.40
-67.26
-73.59
-80.32
-86.24
-90.17
-90.90
-87.22
-78.16
-63.48
-44.10
-22.19
-0.59
18.07
32.18
41.49
46.75
49.07
49.36
48.09
45.46
41.77
37.54
33.50
30.22
27.98
26.68
25.99
25.60
25.29
24.91
24.29
23.24
21.71
19.88
18.29
17.55
18.12
19.98
22.54
24.99
26.67
27.52
28.04
28.94
30.58
32.61
34.12
34.09
32.12
28.64
24.76
21.62
19.73
18.69
17.40
14.66
9.81
3.11
-4.39
-11.26
-16.23
-18.56
-18.16
-15.55
-11.57
-7.22
-3.46
-1.06
-0.60
-2.42
-6.52
-12.56
-19.75
-26.95
-32.78
-36.00
-35.74
-31.75
-24.46
-14.96
-4.78
4.52
11.72
16.19
18.07
17.95
16.56
14.40
11.61
8.20
4.45
1.11
-0.72
-0.08
3.26
8.57
14.41
19.36
22.71
24.68
26.14
27.85
29.96
31.88
32.63
31.57
28.75
24.87
20.81
17.11
13.76
10.46
7.03
3.85
1.90
2.36
6.07
13.04
22.32
32.20
40.81
46.72
49.27
48.80
46.37
43.35
40.99
40.01
40.53
42.17
44.41
46.79
49.08
51.05
52.31
52.33
50.58
46.78
40.91
33.12
23.40
11.49
-2.79
-19.15
-36.35
-52.23
-64.29
-70.65
-70.73
-65.48
-56.97
-47.57
-39.21
-33.01
-29.25
-27.61
-27.38
-27.66
-27.46
-25.90
-22.43
-16.98
-10.09
-2.76
3.87
8.90
12.00
13.43
14.04
14.83
16.58
19.58
23.52
27.62
30.92
32.69
32.66
31.23
29.26
27.74
27.26
27.76
28.52
28.53
27.06
24.03
19.98
15.71
11.74
8.02
3.97
-1.07
-7.41
-14.79
-22.45
-29.49
-35.23
-39.45
-42.36
-44.53
-46.61
-49.11
-52.20
-55.53
-58.20
-59.12
-57.42
-53.00
-46.60
-39.55
-33.08
-27.77
-23.44
-19.47
-15.43
-11.38
-7.78
-5.08
-3.26
-1.89
-0.43
1.20
2.44
2.48
0.81
-2.25
-5.62
-7.98
-8.48
-7.12
-4.81
-2.81
-2.28
-3.83
-7.54
-12.93
-19.17
-25.17
-29.74
-31.88
-31.16
-28.01
-23.66
-19.70
-17.40
-17.12
-18.16
-19.19
-18.94
-16.78
-13.01
-8.55
-4.41
-1.17
1.22
3.26
5.47
8.05
10.77
13.11
14.57
15.01
14.73
14.37
14.61
15.84
17.89
20.05
21.31
20.78
18.02
13.13
6.70
-0.41
-7.40
-13.58
-18.49
-21.83
-23.46
-23.37
-21.75
-18.90
-15.25
-11.17
-6.98
-2.84
1.14
4.83
8.10
10.78
12.72
13.83
14.21
14.05
13.73
13.59
13.85
14.40
14.85
14.64
13.31
10.75
7.31
3.67
0.45
-2.06
-4.13
-6.39
-9.52
-13.75
-18.83
-24.08
-28.77
-32.40
-34.84
-36.14
-36.35
-35.41
-33.08
-29.16
-23.67
-16.90
-9.42
-1.92
4.97
10.72
14.91
17.30
17.87
16.88
14.89
12.63
10.76
9.67
9.39
9.61
9.82
9.57
8.58
6.76
4.21
1.16
-2.04
-4.86
-6.61
-6.66
-4.91
-2.04
0.62
1.53
-0.26
-4.61
-10.27
-15.55
-19.19
-20.98
-21.72
-22.41
-23.26
-23.15
-20.13
-12.51
-0.13
15.16
30.20
41.90
48.62
50.76
50.25
49.30
49.34
50.57
52.26
53.54
53.85
52.98
50.74
46.75
40.60
32.21
22.29
12.23
3.58
-2.59
-6.18
-7.98
-9.19
-10.80
-13.22
-16.37
-19.97
-23.88
-28.17
-32.92
-37.81
-41.94
-44.00
-42.77
-37.71
-29.38
-19.29
-9.46
-1.56
3.70
6.72
8.63
10.63
13.27
16.29
18.75
19.65
18.40
15.15
10.74
6.26
2.71
0.73
0.43
1.42
2.95
4.07
3.92
2.08
-1.25
-5.26
-8.97
-11.58
-12.90
-13.34
-13.65
-14.62
-16.83
-20.54
-25.68
-31.77
-37.97
-43.13
-46.12
-46.28
-43.70
-39.19
-33.87
-28.63
-23.83
-19.44
-15.43
-12.12
-10.12
-9.94
-11.51
-14.10
-16.66
-18.39
-19.17
-19.55
-20.34
-22.04
-24.61
-27.61
-30.58
-33.30
-35.92
-38.72
-41.76
-44.90
-47.79
-50.23
-52.45
-55.11
-59.05
-64.79
-71.88
-78.64
-82.48
-80.71
-71.77
-56.03
-35.89
-14.89
3.72
18.31
29.25
38.29
47.34
57.18
66.93
74.49
77.66
75.39
68.51
59.52
51.64
47.59
48.40
53.14
59.41
64.41
66.06
63.73
58.22
51.13
44.21
38.74
35.41
34.34
35.16
37.06
38.80
39.00
36.57
31.17
23.27
13.96
4.40
-4.61
-12.74
-19.92
-25.88
-29.98
-31.35
-29.28
-23.73
-15.44
-5.79
3.64
11.40
16.40
18.09
16.40
11.76
5.11
-2.24
-8.79
-13.19
-14.65
-13.15
-9.50
-5.15
-1.73
-0.50
-1.95
-5.70
-10.71
-15.88
-20.54
-24.76
-29.21
-34.82
-42.16
-51.21
-61.19
-70.81
-78.55
-82.87
-82.48
-76.50
-64.75
-47.90
-27.64
-6.33
13.46
29.61
41.03
47.88
51.42
53.60
56.37
61.07
68.06
76.57
85.01
91.66
95.47
96.40
95.30
93.14
90.20
85.73
78.44
67.48
53.35
38.08
24.48
14.78
9.60
7.75
7.02
5.42
2.19
-2.08
-6.19
-9.19
-10.99
-12.26
-13.87
-16.15
-18.63
-20.21
-19.82
-16.99
-12.07
-6.04
0.06
5.71
11.16
17.24
24.81
34.16
44.63
54.69
62.36
65.86
64.21
57.60
47.36
35.56
24.39
15.54
9.84
7.14
6.69
7.57
9.08
10.92
12.99
15.05
16.37
15.82
12.44
6.18
-1.60
-8.46
-11.87
-10.43
-4.82
2.44
8.20
10.25
8.40
4.46
1.02
-0.01
1.55
4.23
5.88
4.79
0.45
-6.55
-14.98
-23.67
-31.82
-39.08
-45.37
-50.70
-55.01
-58.13
-59.72
-59.47
-57.33
-53.64
-49.15
-44.80
-41.29
-38.90
-37.49
-36.78
-36.77
-37.78
-40.09
-43.46
-46.83
-48.53
-46.90
-41.07
-31.37
-19.20
-6.48
4.91
13.55
18.55
19.60
17.05
12.12
6.81
3.46
3.94
8.77
16.79
25.52
32.11
34.42
31.72
24.75
15.21
5.14
-3.66
-10.01
-13.50
-14.43
-13.70
-12.45
-11.85
-12.81
-15.91
-21.38
-28.97
-37.83
-46.41
-52.62
-54.49
-50.99
-42.65
-31.37
-19.59
-9.07
-0.12
8.18
16.97
26.41
35.22
41.25
42.75
39.52
33.28
26.93
23.12
23.13
26.41
31.11
35.11
37.01
36.47
34.20
31.40
29.20
28.34
28.93
30.50
32.16
32.84
31.52
27.50
20.62
11.42
1.18
-8.35
-15.41
-18.79
-18.26
-14.57
-9.08
-3.15
2.34
7.31
12.29
18.01
24.74
31.96
38.23
41.73
40.95
35.26
25.15
11.86
-3.15
-18.64
-33.58
-46.90
-57.14
-62.53
-61.64
-54.14
-41.24
-25.50
-9.93
3.00
12.10
17.57
20.48
22.10
23.18
23.79
23.42
21.46
17.62
12.22
6.15
0.60
-3.36
-5.03
-4.19
-0.97
4.30
11.18
19.11
27.36
35.08
41.43
45.74
47.71
47.39
45.21
41.82
37.97
34.36
31.38
29.04
26.94
24.49
21.27
17.39
13.55
10.76
9.80
10.70
12.64
14.33
14.73
13.58
11.52
9.54
8.33
7.79
7.15
5.60
2.82
-0.72
-4.13
-6.74
-8.60
-10.43
-13.03
-16.69
-20.76
-23.87
-24.62
-22.28
-17.22
-10.76
-4.50
0.46
4.01
7.02
10.74
16.04
22.83
30.01
36.04
39.75
40.92
40.30
39.10
38.28
38.10
38.19
38.10
37.83
37.94
39.19
41.73
44.66
46.22
44.64
39.16
30.68
21.44
13.95
9.77
8.78
9.41
9.70
8.40
5.65
2.60
0.50
-0.34
-0.87
-2.75
-7.38
-14.92
-24.20
-33.31
-40.71
-45.93
-49.66
-53.08
-56.86
-60.61
-63.05
-62.67
-58.66
-51.39
-42.32
-33.30
-25.86
-20.64
-17.41
-15.38
-13.69
-11.88
-9.91
-8.14
-6.94
-6.46
-6.47
-6.51
-6.15
-5.26
-4.07
-3.09
-2.80
-3.45
-4.95
-6.96
-9.15
-11.21
-12.98
-14.31
-15.00
-14.82
-13.61
-11.47
-8.85
-6.50
-5.27
-5.79
-8.21
-12.12
-16.61
-20.63
-23.21
-23.74
-22.09
-18.56
-13.76
-8.41
-3.19
1.46
5.35
8.52
11.22
13.69
16.17
18.84
21.81
25.20
29.04
33.20
37.39
41.23
44.34
46.59
48.11
49.13
49.79
50.03
49.55
48.11
45.67
42.52
39.18
36.17
33.70
31.57
29.31
26.50
23.05
19.33
15.88
12.94
10.14
6.47
0.80
-7.44
-17.74
-28.53
-37.74
-43.73
-45.86
-44.65
-41.22
-36.58
-31.20
-25.12
-18.31
-11.24
-4.81
-0.01
2.77
4.08
5.18
7.33
11.02
15.54
19.43
21.35
20.93
19.11
17.63
18.02
20.70
24.72
28.21
29.47
27.81
23.86
19.18
15.38
13.33
12.91
13.35
13.78
13.75
13.34
12.80
12.15
11.01
8.88
5.71
2.29
0.13
0.84
5.16
12.29
20.04
25.65
27.16
24.33
18.78
13.27
10.31
11.04
14.79
19.43
22.44
21.98
17.53
9.80
0.11
-10.31
-20.70
-30.68
-39.87
-47.65
-53.30
-56.39
-57.07
-56.16
-54.69
-53.38
-52.35
-51.15
-49.31
-46.72
-43.89
-41.68
-40.81
-41.44
-43.00
-44.33
-44.20
-41.61
-36.31
-28.84
-20.45
-12.66
-6.79
-3.44
-2.35
-2.54
-2.73
-1.87
0.56
4.51
9.53
15.02
20.33
24.80
27.65
28.11
25.66
20.46
13.50
6.43
0.93
-2.09
-2.83
-2.52
-2.64
-4.07
-6.63
-9.36
-11.21
-11.88
-12.07
-13.21
-16.58
-22.57
-30.41
-38.40
-44.69
-47.92
-47.50
-43.55
-36.55
-27.10
-16.05
-4.65
5.35
12.04
14.04
11.31
5.22
-2.00
-8.50
-13.70
-18.35
-23.60
-29.71
-35.31
-37.98
-35.63
-28.11
-17.64
-7.89
-2.14
-1.63
-5.17
-10.08
-13.95
-16.15
-17.88
-21.22
-27.52
-36.25
-45.14
-51.24
-52.55
-49.13
-43.08
-37.44
-34.64
-35.40
-38.56
-41.82
-43.09
-41.39
-37.13
-31.61
-26.30
-22.20
-19.73
-18.95
-19.76
-21.95
-25.00
-27.90
-29.24
-27.70
-22.70
-14.73
-5.39
3.19
9.26
12.03
11.89
10.04
7.80
6.01
4.92
4.40
4.39
5.10
6.84
9.52
12.24
13.28
10.70
3.27
-8.69
-23.06
-36.58
-46.01
-49.41
-46.89
-40.32
-32.43
-25.50
-20.60
-17.53
-15.40
-13.48
-11.64
-10.19
-9.37
-8.94
-8.05
-5.80
-1.68
4.12
10.91
17.85
24.33
29.98
34.53
37.55
38.60
37.56
34.93
31.84
29.63
29.13
30.20
31.72
32.09
30.05
25.23
18.29
10.47
3.10
-2.93
-7.27
-9.84
-10.65
-9.53
-6.32
-1.02
5.96
13.87
21.71
28.47
33.35
35.91
36.12
34.32
31.09
27.15
23.09
19.32
15.91
12.69
9.34
5.51
0.95
-4.46
-10.67
-17.32
-23.71
-28.86
-31.72
-31.56
-28.35
-22.83
-16.34
-10.36
-6.14
-4.33
-5.03
-7.86
-12.12
-16.96
-21.49
-24.90
-26.44
-25.54
-21.67
-14.52
-4.03
9.32
24.32
39.09
51.48
59.76
63.18
62.23
58.25
52.83
47.10
41.50
35.90
30.07
24.02
18.15
13.10
9.41
7.35
6.77
7.24
8.18
8.89
8.71
7.09
3.75
-1.22
-7.26
-13.56
-19.22
-23.56
-26.16
-26.83
-25.52
-22.28
-17.33
-11.25
-4.89
0.90
5.62
9.33
12.59
16.08
20.14
24.52
28.42
30.97
31.67
30.74
29.04
27.71
27.56
28.75
30.72
32.49
33.20
32.46
30.49
27.84
25.07
22.36
19.47
15.92
11.40
6.00
0.22
-5.36
-10.43
-15.25
-20.57
-27.14
-35.23
-44.20
-52.72
-59.23
-62.77
-63.25
-61.44
-58.28
-54.26
-49.14
-42.28
-33.29
-22.54
-11.24
-0.88
7.42
13.35
17.29
19.84
21.27
21.47
20.17
17.45
14.02
11.01
9.47
9.86
11.79
14.18
15.72
15.34
12.47
7.16
-0.07
-8.32
-16.55
-23.83
-29.60
-33.67
-36.11
-36.86
-35.51
-31.34
-23.78
-13.01
-0.40
11.79
21.10
25.99
26.37
23.57
19.67
16.59
15.45
16.45
19.04
22.38
25.64
28.25
30.02
31.16
32.20
33.74
36.02
38.67
40.71
40.93
38.57
33.80
27.72
21.89
17.58
15.14
13.95
12.86
10.75
7.16
2.35
-3.01
-8.18
-12.69
-16.38
-19.22
-21.18
-22.24
-22.44
-22.01
-21.30
-20.57
-19.88
-19.11
-18.13
-16.99
-16.08
-15.74
-16.09
-16.74
-16.92
-15.84
-13.14
-9.06
-4.30
0.39
4.49
7.91
10.93
13.93
17.23
21.00
25.20
29.60
33.79
37.22
39.26
39.28
36.82
31.69
24.24
15.45
6.96
0.72
-1.64
0.41
5.85
12.35
17.20
18.51
16.01
11.05
5.64
1.32
-1.69
-4.34
-7.97
-13.26
-19.71
-25.87
-30.07
-31.27
-29.43
-25.33
-20.02
-14.23
-8.18
-1.57
5.86
13.87
21.46
26.98
28.77
25.87
18.62
8.62
-1.79
-10.51
-16.40
-19.65
-21.36
-22.80
-24.69
-26.86
-28.47
-28.48
-26.30
-22.03
-16.48
-10.73
-5.69
-1.74
1.31
3.92
6.42
8.68
10.30
10.95
10.72
10.25
10.36
11.58
13.73
16.06
17.69
18.18
17.74
17.08
16.97
17.78
19.32
21.09
22.50
23.12
22.74
21.24
18.59
14.88
10.27
5.06
-0.46
-6.00
-11.29
-15.96
-19.50
-21.29
-20.86
-18.15
-13.64
-8.27
-3.09
1.16
4.33
6.89
9.53
12.71
16.33
19.72
21.99
22.51
21.35
19.14
16.79
14.93
13.57
12.23
10.26
7.34
3.64
-0.34
-4.07
-7.29
-10.00
-12.22
-13.90
-14.88
-15.06
-14.72
-14.49
-15.18
-17.29
-20.76
-24.89
-28.61
-30.91
-31.15
-29.22
-25.42
-20.31
-14.53
-8.61
-2.99
2.11
6.67
10.85
14.87
18.87
22.77
26.31
29.13
30.99
31.88
31.99
31.57
30.83
29.85
28.66
27.26
25.73
24.24
22.84
21.49
19.99
18.06
15.49
12.33
8.85
5.52
2.84
1.13
0.44
0.53
0.89
0.98
0.32
-1.31
-3.85
-6.91
-9.90
-12.12
-12.96
-12.05
-9.41
-5.41
-0.64
4.32
9.06
13.45
17.46
21.03
23.99
26.11
27.27
27.58
27.43
27.27
27.39
27.74
27.94
27.47
25.98
23.47
20.29
16.99
14.02
11.54
9.35
7.01
4.08
0.42
-3.79
-8.10
-12.02
-15.35
-18.20
-20.97
-24.06
-27.67
-31.74
-36.02
-40.23
-44.11
-47.41
-49.77
-50.68
-49.57
-46.10
-40.31
-32.70
-24.05
-15.21
-6.87
0.53
6.77
11.72
15.32
17.71
19.14
20.09
21.02
22.18
23.53
24.76
25.40
25.16
24.12
22.70
21.56
21.26
21.95
23.29
24.53
24.82
23.64
20.94
17.15
12.86
8.50
4.10
-0.68
-6.30
-13.05
-20.88
-29.38
-37.82
-45.32
-50.95
-53.85
-53.41
-49.45
-42.36
-33.11
-22.99
-13.33
-5.19
0.83
4.56
6.23
6.33
5.45
4.25
3.23
2.76
3.02
4.09
5.99
8.67
11.86
14.99
17.28
18.03
17.05
14.83
12.51
11.34
12.06
14.51
17.68
20.18
20.87
19.32
15.92
11.64
7.58
4.58
3.05
3.05
4.45
7.08
10.85
15.57
20.93
26.22
30.51
32.79
32.37
29.18
23.85
17.51
11.38
6.30
2.50
-0.32
-2.75
-5.39
-8.75
-13.33
-19.71
-28.35
-39.26
-51.63
-63.71
-73.32
-78.53
-78.50
-73.73
-65.86
-56.95
-48.74
-42.26
-37.82
-35.36
-34.64
-35.38
-37.07
-38.91
-39.82
-38.76
-35.09
-28.85
-20.79
-12.05
-3.73
3.58
9.87
15.57
21.11
26.56
31.51
35.27
37.29
37.57
36.71
35.68
35.38
36.16
37.65
38.95
39.12
37.58
34.43
30.31
26.08
22.44
19.65
17.55
15.70
13.67
11.28
8.55
5.71
2.91
0.17
-2.66
-5.80
-9.30
-12.88
-15.97
-17.83
-17.87
-15.98
-12.50
-8.15
-3.62
0.70
4.85
9.12
13.73
18.61
23.24
26.94
29.15
29.69
28.86
27.30
25.74
24.76
24.60
25.16
26.11
27.01
27.41
26.99
25.63
23.53
21.16
19.15
18.00
17.82
18.15
18.07
16.56
12.88
6.94
-0.71
-9.15
-17.37
-24.65
-30.56
-34.89
-37.45
-38.15
-37.10
-34.75
-31.84
-29.15
-27.15
-25.77
-24.49
-22.66
-19.89
-16.26
-12.26
-8.49
-5.47
-3.48
-2.66
-3.04
-4.61
-7.28
-10.70
-14.29
-17.44
-19.69
-21.05
-21.97
-23.18
-25.31
-28.58
-32.55
-36.36
-38.98
-39.76
-38.60
-36.00
-32.77
-29.61
-26.86
-24.39
-21.76
-18.54
-14.47
-9.66
-4.46
0.68
5.42
9.62
13.28
16.41
18.89
20.40
20.59
19.40
17.22
14.88
13.30
13.01
13.79
14.75
14.72
12.89
9.17
4.17
-1.28
-6.56
-11.58
-16.70
-22.26
-28.22
-34.14
-39.34
-43.30
-45.82
-47.05
-47.11
-45.96
-43.36
-39.09
-33.18
-26.10
-18.54
-11.18
-4.42
1.71
7.37
12.72
17.70
22.05
25.46
27.80
29.23
30.13
30.99
32.07
33.33
34.49
35.20
35.30
34.92
34.41
34.04
33.86
33.63
33.00
31.73
29.82
27.44
24.68
21.49
17.65
12.93
7.35
1.17
-5.09
-10.97
-16.12
-20.32
-23.36
-24.98
-24.86
-22.83
-19.02
-13.99
-8.63
-3.90
-0.56
1.01
0.85
-0.76
-3.40
-6.75
-10.51
-14.44
-18.20
-21.42
-23.68
-24.71
-24.44
-23.07
-21.10
-19.15
-17.78
-17.31
-17.75
-18.81
-20.07
-21.22
-22.15
-23.10
-24.46
-26.50
-29.14
-31.80
-33.65
-33.98
-32.55
-29.75
-26.32
-22.90
-19.58
-15.91
-11.25
-5.31
1.45
7.84
12.49
14.52
14.01
11.90
9.54
8.02
7.75
8.42
9.32
9.74
9.27
7.86
5.65
2.85
-0.38
-3.90
-7.45
-10.66
-13.07
-14.40
-14.70
-14.40
-14.11
-14.31
-15.07
-16.02
-16.47
-15.71
-13.42
-9.74
-5.25
-0.68
3.42
6.95
10.34
14.36
19.74
26.83
35.42
44.75
53.78
61.52
67.39
71.27
73.40
74.08
73.42
71.23
67.18
61.03
53.05
44.06
35.31
27.99
22.67
19.00
15.74
11.39
4.90
-3.80
-13.75
-23.38
-31.28
-36.69
-39.66
-40.82
-40.80
-39.90
-38.07
-35.07
-30.84
-25.63
-19.93
-14.29
-9.01
-4.13
0.52
5.07
9.47
13.45
16.59
18.53
19.14
18.61
17.39
16.05
15.07
14.70
14.85
15.15
15.08
14.19
12.25
9.39
6.04
2.70
-0.18
-2.48
-4.36
-6.19
-8.40
-11.33
-15.11
-19.65
-24.66
-29.64
-33.97
-37.00
-38.23
-37.52
-35.10
-31.44
-26.98
-21.88
-15.97
-9.04
-1.12
7.18
14.72
20.29
23.01
22.88
20.72
17.85
15.52
14.37
14.27
14.50
14.22
12.92
10.64
7.87
5.28
3.25
1.86
0.82
-0.21
-1.37
-2.56
-3.50
-4.01
-4.24
-4.64
-5.77
-8.03
-11.47
-15.71
-20.28
-24.73
-28.74
-32.07
-34.40
-35.28
-34.25
-31.10
-25.95
-19.25
-11.63
-3.62
4.44
12.30
19.73
26.37
31.84
35.87
38.45
39.89
40.62
41.01
41.17
40.94
40.02
38.18
35.42
32.01
28.39
25.02
22.22
20.14
18.72
17.80
17.06
16.19
14.84
12.77
9.95
6.60
3.15
0.12
-2.08
-3.30
-3.72
-3.76
-3.93
-4.65
-6.15
-8.48
-11.55
-15.16
-19.02
-22.64
-25.38
-26.51
-25.46
-22.06
-16.70
-10.22
-3.60
2.43
7.67
12.38
17.01
21.82
26.73
31.37
35.27
38.16
40.06
41.15
41.67
41.66
40.97
39.45
37.00
33.75
30.00
26.05
22.04
17.98
13.72
9.15
4.32
-0.64
-5.55
-10.28
-14.76
-18.98
-22.86
-26.32
-29.23
-31.54
-33.34
-34.80
-36.10
-37.39
-38.77
-40.29
-41.97
-43.78
-45.50
-46.73
-46.90
-45.54
-42.42
-37.74
-32.00
-25.82
-19.65
-13.65
-7.83
-2.17
3.13
7.65
11.02
13.08
14.13
14.78
15.73
17.34
19.54
21.78
23.44
24.06
23.57
22.30
20.73
19.28
18.14
17.27
16.43
15.34
13.80
11.72
9.20
6.48
3.88
1.73
0.27
-0.49
-0.77
-1.01
-1.78
-3.64
-7.00
-11.86
-17.81
-23.96
-29.24
-32.65
-33.68
-32.44
-29.58
-26.00
-22.40
-19.05
-15.83
-12.47
-8.89
-5.35
-2.45
-0.71
-0.38
-1.22
-2.67
-4.19
-5.40
-6.25
-6.81
-7.08
-6.86
-5.92
-4.16
-1.85
0.38
1.86
2.14
1.22
-0.52
-2.57
-4.61
-6.58
-8.59
-10.67
-12.67
-14.41
-15.86
-17.32
-19.31
-22.20
-25.86
-29.49
-31.93
-32.15
-29.71
-24.95
-18.74
-12.12
-5.77
0.09
5.59
10.91
15.98
20.43
23.75
25.54
25.77
24.87
23.55
22.49
22.05
22.08
22.02
21.19
19.20
16.13
12.53
9.15
6.50
4.67
3.33
2.05
0.58
-0.97
-2.23
-2.79
-2.57
-1.88
-1.31
-1.45
-2.65
-4.96
-8.17
-11.89
-15.66
-18.93
-21.13
-21.77
-20.65
-17.94
-14.19
-10.10
-6.19
-2.67
0.54
3.57
6.42
8.89
10.74
11.88
12.55
13.23
14.27
15.81
17.57
19.18
20.38
21.24
22.04
22.99
23.97
24.50
23.99
22.08
18.94
15.18
11.56
8.59
6.29
4.25
1.90
-1.12
-4.95
-9.49
-14.56
-19.94
-25.26
-29.89
-33.04
-33.96
-32.36
-28.61
-23.68
-18.68
-14.42
-11.04
-8.09
-4.86
-0.89
3.79
8.69
13.09
16.48
18.72
20.06
20.86
21.35
21.50
21.06
19.79
17.68
15.09
12.57
10.71
9.79
9.71
10.02
10.19
9.81
8.78
7.23
5.48
3.79
2.25
0.80
-0.71
-2.37
-4.21
-6.20
-8.27
-10.37
-12.41
-14.18
-15.35
-15.46
-14.10
-11.14
-6.81
-1.62
3.86
9.24
14.42
19.43
24.23
28.50
31.78
33.65
34.06
33.35
32.14
30.93
29.85
28.68
27.10
25.04
22.81
20.97
19.90
19.57
19.47
18.91
17.42
14.96
11.86
8.49
4.98
1.13
-3.36
-8.70
-14.71
-20.94
-26.97
-32.57
-37.81
-42.87
-47.78
-52.25
-55.75
-57.77
-58.11
-57.06
-55.25
-53.32
-51.70
-50.41
-49.10
-47.33
-44.73
-41.20
-36.92
-32.24
-27.60
-23.39
-19.85
-17.04
-14.77
-12.76
-10.72
-8.49
-6.18
-4.09
-2.60
-1.90
-1.93
-2.39
-2.91
-3.30
-3.59
-3.96
-4.62
-5.65
-7.04
-8.75
-10.84
-13.38
-16.30
-19.28
-21.75
-23.06
-22.81
-21.05
-18.16
-14.66
-10.86
-6.83
-2.51
2.02
6.32
9.72
11.52
11.46
9.87
7.52
5.32
3.89
3.38
3.50
3.86
4.17
4.38
4.63
5.05
5.63
6.14
6.31
5.94
5.07
3.95
2.91
2.19
1.84
1.65
1.21
0.08
-2.09
-5.32
-9.28
-13.26
-16.39
-17.89
-17.37
-14.90
-11.04
-6.51
-1.87
2.61
6.96
11.22
15.32
18.90
21.52
22.93
23.22
22.87
22.46
22.42
22.84
23.44
23.83
23.70
23.00
21.89
20.64
19.48
18.46
17.55
16.65
15.67
14.52
13.15
11.53
9.62
7.42
4.88
1.98
-1.39
-5.30
-9.65
-14.13
-18.17
-21.04
-22.10
-21.09
-18.19
-14.01
-9.19
-4.26
0.61
5.41
10.14
14.54
18.08
20.21
20.61
19.49
17.45
15.23
13.40
12.07
10.92
9.48
7.41
4.70
1.63
-1.45
-4.33
-7.01
-9.56
-11.92
-13.79
-14.80
-14.75
-13.87
-12.84
-12.56
-13.66
-16.28
-19.97
-23.94
-27.35
-29.68
-30.77
-30.72
-29.74
-27.99
-25.53
-22.35
-18.45
-13.88
-8.84
-3.64
1.35
5.77
9.45
12.38
14.70
16.57
18.08
19.18
19.68
19.47
18.56
17.21
15.82
14.80
14.34
14.29
14.20
13.56
11.97
9.45
6.31
3.09
0.22
-2.22
-4.49
-7.05
-10.23
-14.05
-18.18
-22.12
-25.46
-28.04
-29.87
-31.00
-31.29
-30.41
-27.95
-23.72
-17.90
-11.02
-3.84
3.01
9.18
14.59
19.28
23.24
26.35
28.48
29.58
29.83
29.57
29.15
28.73
28.16
27.11
25.29
22.70
19.72
16.92
14.83
13.56
12.71
11.61
9.60
6.45
2.50
-1.57
-5.01
-7.49
-9.16
-10.59
-12.49
-15.27
-18.89
-22.80
-26.12
-28.02
-27.96
-25.91
-22.32
-17.86
-13.17
-8.55
-3.96
0.82
5.91
11.07
15.73
19.27
21.31
21.96
21.77
21.43
21.47
21.99
22.68
23.12
23.03
22.47
21.78
21.37
21.43
21.77
21.93
21.41
20.00
17.94
15.74
13.83
12.25
10.59
8.17
4.52
-0.33
-5.84
-11.32
-16.28
-20.64
-24.53
-28.00
-30.71
-32.01
-31.23
-28.17
-23.19
-17.10
-10.77
-4.73
0.85
6.02
10.75
14.86
18.06
20.20
21.41
22.08
22.67
23.48
24.54
25.70
26.72
27.45
27.86
27.97
27.77
27.21
26.27
25.00
23.54
21.97
20.26
18.19
15.47
11.89
7.39
2.12
-3.72
-10.01
-16.79
-24.13
-31.97
-39.86
-46.92
-52.06
-54.29
-53.21
-49.16
-43.15
-36.48
-30.25
-25.00
-20.70
-16.97
-13.39
-9.81
-6.35
-3.29
-0.84
0.97
2.33
3.56
5.03
7.05
9.74
13.04
16.62
19.98
22.59
24.09
24.48
24.09
23.47
23.12
23.29
23.89
24.59
24.99
24.80
24.00
22.76
21.32
19.76
18.09
16.22
14.21
12.32
11.05
10.91
12.19
14.85
18.48
22.48
26.22
29.19
31.00
31.42
30.35
27.97
24.72
21.25
18.23
16.17
15.20
15.15
15.62
16.20
16.45
16.05
14.66
12.06
8.23
3.52
-1.38
-5.61
-8.34
-9.13
-8.08
-5.83
-3.34
-1.58
-1.16
-2.17
-4.21
-6.57
-8.64
-10.12
-11.13
-11.92
-12.60
-12.83
-11.91
-9.09
-4.04
2.88
10.62
17.95
23.90
28.20
31.16
33.39
35.24
36.66
37.23
36.60
34.85
32.51
30.32
28.64
27.19
25.07
21.38
15.76
8.74
1.40
-5.31
-11.18
-17.06
-24.34
-34.21
-46.90
-61.49
-76.17
-89.02
-98.64
-104.40
-106.50
-105.60
-102.61
-98.48
-94.05
-89.85
-86.00
-82.06
-77.26
-70.79
-62.27
-51.97
-40.81
-29.97
-20.54
-13.10
-7.72
-4.02
-1.53
0.18
1.36
2.09
2.39
2.30
1.89
1.29
0.62
-0.01
-0.60
-1.21
-1.99
-3.07
-4.51
-6.23
-8.06
-9.73
-11.10
-12.15
-13.03
-13.94
-15.05
-16.48
-18.27
-20.47
-23.01
-25.75
-28.30
-30.02
-30.22
-28.39
-24.47
-18.96
-12.76
-6.77
-1.56
2.88
6.95
11.13
15.51
19.73
23.12
25.17
25.82
25.55
25.16
25.29
26.07
27.16
28.00
28.20
27.82
27.21
26.72
26.33
25.63
24.03
21.20
17.31
12.96
8.88
5.47
2.58
-0.39
-4.07
-8.71
-13.98
-19.07
-23.08
-25.42
-25.97
-24.99
-22.89
-19.96
-16.33
-12.07
-7.33
-2.46
2.05
5.77
8.47
10.26
11.44
12.38
13.30
14.26
15.18
15.97
16.58
16.97
17.05
16.66
15.56
13.59
10.77
7.34
3.66
0.05
-3.40
-6.81
-10.46
-14.48
-18.85
-23.27
-27.43
-31.04
-33.98
-36.15
-37.33
-37.12
-35.07
-30.85
-24.52
-16.52
-7.57
1.60
10.47
18.76
26.32
32.95
38.33
42.05
43.83
43.64
41.77
38.78
35.30
31.89
28.89
26.42
24.40
22.65
20.96
19.12
16.96
14.37
11.36
8.07
4.76
1.68
-1.03
-3.39
-5.53
-7.71
-10.20
-13.31
-17.30
-22.24
-27.85
-33.42
-37.82
-39.95
-39.09
-35.18
-28.82
-20.90
-12.14
-2.90
6.71
16.52
26.00
34.32
40.69
44.83
47.12
48.40
49.49
50.73
51.88
52.31
51.49
49.39
46.52
43.66
41.45
40.09
39.25
38.41
37.09
35.12
32.58
29.68
26.52
23.02
18.95
14.03
8.11
1.20
-6.40
-14.20
-21.49
-27.50
-31.63
-33.65
-33.85
-32.84
-31.38
-29.90
-28.44
-26.75
-24.58
-21.98
-19.36
-17.28
-16.05
-15.55
-15.24
-14.53
-13.08
-11.07
-8.99
-7.44
-6.79
-7.12
-8.28
-10.05
-12.25
-14.73
-17.32
-19.76
-21.79
-23.27
-24.27
-24.99
-25.55
-25.91
-25.76
-24.70
-22.46
-19.07
-14.89
-10.42
-6.14
-2.26
1.29
4.78
8.55
12.81
17.58
22.65
27.58
31.84
34.89
36.45
36.61
35.80
34.65
33.72
33.24
33.07
32.85
32.15
30.77
28.70
26.01
22.80
19.13
15.08
10.89
6.90
3.44
0.66
-1.62
-3.75
-6.10
-8.82
-11.77
-14.67
-17.17
-19.10
-20.36
-20.99
-20.98
-20.30
-18.88
-16.63
-13.53
-9.68
-5.38
-1.03
2.84
5.87
7.87
8.93
9.21
8.90
8.02
6.55
4.62
2.53
0.86
0.11
0.49
1.76
3.34
4.55
4.94
4.41
3.14
1.39
-0.69
-3.09
