1581794366.00
64.000000
-0.00
-0.00
-0.00
-0.00
-0.00
-0.00
-0.00
-0.00
-0.00
-0.00
0.00
0.01
0.01
-0.00
-0.03
-0.05
-0.05
0.00
0.13
0.36
0.66
1.01
1.37
1.72
2.06
2.40
2.79
3.24
3.80
4.42
5.06
5.66
6.20
6.68
7.15
7.68
8.31
9.14
10.09
11.04
11.88
12.56
13.14
13.76
14.65
15.96
17.91
20.32
22.90
25.38
27.58
29.57
31.68
34.32
37.81
42.54
48.15
54.10
59.83
64.97
69.58
74.14
79.34
85.71
93.76
103.00
112.62
121.73
129.77
136.75
143.30
150.75
157.77
166.64
177.95
191.79
206.97
220.57
228.25
225.36
208.53
176.87
132.76
80.05
23.07
-34.94
-92.44
-149.16
-205.23
-260.37
-313.74
-363.87
-409.83
-450.91
-486.50
-515.74
-537.23
-549.22
-549.96
-538.37
-514.21
-478.67
-433.88
-382.45
-327.02
-269.84
-212.63
-156.66
-102.95
-52.37
-5.90
35.58
71.43
101.35
125.50
144.38
158.69
169.15
176.37
180.75
182.57
182.07
179.51
175.23
169.65
163.18
156.15
148.81
141.30
133.69
126.02
118.33
110.69
103.16
95.80
88.68
81.83
75.25
68.95
62.95
57.25
51.86
46.78
42.03
37.59
33.45
29.61
26.07
22.81
19.82
17.11
14.67
12.48
10.55
8.85
7.38
6.12
5.04
4.14
3.39
2.78
2.28
1.88
1.57
1.33
1.15
1.01
0.92
0.87
0.84
0.84
0.85
0.89
0.94
1.01
1.09
1.18
1.29
1.40
1.53
1.68
1.84
2.01
2.21
2.43
2.67
2.93
3.22
3.55
3.90
4.29
4.71
5.18
5.68
6.22
6.80
7.44
8.12
8.85
9.63
10.46
11.34
12.28
13.27
14.32
15.43
16.62
17.88
19.22
20.61
22.04
23.46
24.79
25.96
26.84
27.32
27.29
26.63
25.30
23.28
20.65
17.48
13.93
10.18
6.46
2.96
-0.16
-2.81
-4.95
-6.62
-7.92
-8.98
-9.93
-10.91
-12.02
-13.27
-14.65
-16.03
-17.29
-18.24
-18.73
-18.61
-17.83
-16.40
-14.39
-11.87
-8.99
-5.85
-2.56
0.80
4.24
7.66
11.02
14.38
17.76
21.23
24.85
28.68
32.80
37.34
42.10
47.02
52.07
57.21
62.48
67.93
73.62
79.68
86.34
93.35
100.62
108.12
115.83
123.74
131.85
140.19
148.83
157.88
166.89
175.53
183.51
190.49
196.04
199.59
200.28
196.74
191.29
184.49
176.72
168.23
159.20
149.82
140.26
130.70
121.32
112.40
103.62
94.79
85.83
76.67
67.31
57.77
48.13
38.54
29.23
20.03
10.91
1.93
-6.79
-15.10
-22.85
-29.87
-36.03
-41.17
-45.44
-48.90
-51.56
-53.38
-54.25
-54.05
-52.68
-50.07
-46.22
-41.31
-35.54
-29.11
-22.22
-15.14
-8.18
-1.81
3.36
6.67
7.44
5.20
-0.17
-8.42
-19.00
-31.28
-44.71
-59.03
-74.26
-90.53
-107.90
-126.10
-144.51
-162.32
-178.85
-193.83
-207.53
-220.68
-234.00
-247.92
-262.32
-276.67
-290.43
-303.34
-315.52
-327.18
-338.37
-348.65
-357.25
-363.27
-366.06
-365.26
-360.62
-351.73
-338.10
-319.51
-296.66
-271.64
-247.80
-228.73
-216.94
-212.85
-214.54
-218.70
-222.24
-223.58
-223.06
-221.91
-220.79
-218.40
-211.43
-195.69
-168.18
-128.65
-80.07
-27.68
23.00
67.92
105.43
135.88
160.39
179.70
193.77
202.21
205.18
204.09
201.33
199.31
199.09
199.69
198.45
192.44
180.28
163.11
144.52
129.05
120.19
118.98
123.64
130.59
136.02
137.27
133.38
124.56
111.22
93.02
68.65
36.31
-5.29
-56.09
-114.35
-176.99
-240.30
-300.89
-356.12
-404.41
-444.98
-477.74
-503.09
-521.81
-534.97
-543.50
-547.72
-547.03
-540.07
-525.24
-501.62
-469.53
-430.62
-387.41
-342.45
-297.77
-254.62
-213.67
-175.29
-139.80
-107.40
-78.02
-51.27
-26.51
-3.15
19.11
40.20
59.74
77.22
92.31
104.94
115.34
123.89
130.92
136.59
140.84
143.46
144.24
143.19
140.55
136.83
132.70
128.84
125.79
123.87
123.16
123.59
124.97
127.10
129.83
133.03
136.57
140.28
143.91
147.13
149.52
150.64
150.16
147.95
144.15
139.14
133.51
127.81
122.47
117.64
113.27
109.21
105.36
101.90
99.31
98.23
99.30
102.89
109.04
117.39
127.52
139.00
151.60
165.24
179.87
195.36
211.59
228.51
246.13
264.15
281.51
296.15
305.30
306.33
297.84
280.36
256.22
228.62
200.42
173.26
147.58
123.28
100.58
80.36
63.89
52.09
44.89
41.14
39.22
37.68
35.77
33.37
30.60
27.15
22.16
14.65
4.30
-7.89
-19.57
-27.75
-29.88
-24.88
-13.53
1.95
18.72
34.30
47.14
56.78
63.51
68.02
71.01
72.86
73.68
73.35
71.72
68.88
65.19
61.28
57.80
55.23
53.71
53.20
53.57
54.76
56.76
59.47
62.62
65.85
68.91
71.84
75.09
79.30
84.98
92.17
100.29
108.23
114.76
118.88
120.13
118.67
115.07
110.05
104.26
98.16
91.99
85.93
80.07
74.53
69.42
64.98
61.59
59.68
59.45
60.50
61.55
60.49
54.80
42.38
22.33
-4.64
-36.26
-69.38
-100.73
-127.68
-148.61
-162.84
-170.45
-172.06
-168.73
-162.00
-153.73
-145.76
-139.41
-135.00
-131.65
-127.61
-121.04
-110.84
-97.21
-81.61
-66.27
-53.27
-43.88
-38.19
-35.38
-34.33
-34.26
-35.07
-37.24
-41.35
-47.52
-55.04
-62.37
-67.56
-68.74
-64.61
-54.69
-39.37
-19.86
2.05
24.28
44.76
61.83
74.53
82.72
86.93
87.99
86.70
83.56
78.78
72.48
65.12
57.71
51.77
48.95
50.23
55.35
62.58
69.13
72.07
69.34
60.36
46.12
28.69
10.56
-5.98
-19.20
-27.94
-31.74
-30.86
-26.36
-20.09
-14.37
-11.58
-13.63
-21.53
-35.16
-53.28
-73.85
-94.54
-113.32
-128.81
-140.26
-147.11
-148.56
-143.26
-129.61
-106.53
-74.41
-35.69
5.32
43.21
72.79
90.30
94.16
85.15
66.11
41.15
14.76
-9.14
-27.80
-39.84
-44.98
-43.66
-36.64
-24.90
-9.56
8.39
28.56
51.29
77.09
105.26
132.60
153.29
160.87
151.49
126.62
93.22
60.81
36.95
23.88
18.38
14.85
9.43
2.42
-2.37
-0.84
8.28
22.31
36.15
45.21
47.84
45.67
42.44
41.85
46.02
54.88
66.52
78.01
86.46
90.07
88.75
84.11
78.71
74.81
73.29
73.34
73.12
70.99
66.51
60.52
54.44
48.96
43.30
35.26
22.26
2.70
-22.96
-52.01
-80.27
-103.41
-118.38
-124.34
-122.65
-116.24
-108.28
-101.09
-95.54
-91.18
-87.02
-82.31
-77.00
-71.54
-66.25
-60.70
-53.63
-43.45
-28.96
-10.10
11.96
35.09
56.90
75.18
88.14
94.47
93.43
85.10
70.66
52.27
32.42
12.93
-5.82
-24.69
-44.74
-65.67
-85.05
-98.91
-103.70
-98.40
-85.52
-70.14
-57.44
-50.26
-47.99
-47.60
-45.80
-41.09
-34.27
-27.43
-22.12
-18.08
-13.46
-6.16
4.56
17.25
28.84
36.10
37.23
32.69
24.96
17.32
12.59
12.08
15.45
21.22
27.62
33.32
37.80
41.26
44.20
47.00
49.54
51.15
51.07
49.10
46.50
46.23
52.47
69.24
98.94
141.29
193.43
250.73
308.01
360.37
403.65
434.53
450.81
451.92
439.35
416.62
388.47
359.61
333.54
312.13
295.78
284.05
276.10
270.73
266.28
260.75
252.16
239.22
221.77
200.81
178.07
155.23
133.32
112.35
91.59
69.90
46.37
20.70
-6.79
-35.33
-64.29
-93.71
-124.58
-158.58
-197.28
-241.18
-289.25
-339.28
-388.75
-435.66
-478.58
-516.08
-545.97
-565.56
-572.68
-567.26
-551.98
-531.37
-509.70
-488.76
-467.08
-440.92
-406.51
-361.99
-307.97
-246.46
-179.16
-106.60
-28.78
53.25
135.76
212.20
274.81
317.28
337.08
336.24
320.25
295.51
267.02
237.00
205.36
171.13
133.92
94.44
53.84
12.57
-30.32
-76.88
-128.87
-186.21
-246.06
-303.08
-350.94
-384.29
-400.45
-400.00
-386.20
-363.50
-335.91
-305.82
-273.65
-238.41
-198.49
-152.35
-98.94
-38.17
28.47
97.42
163.24
219.98
263.40
292.96
312.18
326.85
341.79
358.16
372.82
380.39
376.61
360.95
336.80
309.45
283.04
258.67
234.51
207.55
175.68
138.65
97.86
55.59
14.19
-24.15
-57.35
-83.54
-101.63
-111.90
-116.20
-117.49
-118.83
-122.44
-129.21
-138.94
-151.02
-164.99
-180.68
-197.97
-216.46
-235.41
-253.91
-271.28
-287.27
-301.89
-315.34
-327.62
-338.54
-347.80
-355.19
-360.70
-364.44
-366.34
-365.80
-361.61
-352.14
-336.14
-313.57
-286.18
-257.35
-231.38
-212.17
-202.10
-201.45
-208.13
-218.13
-226.25
-226.89
-215.11
-188.00
-146.39
-95.75
-45.56
-6.47
13.64
13.08
-2.76
-23.77
-39.57
-43.77
-35.85
-19.93
-1.48
15.84
31.58
47.53
65.81
87.27
111.30
136.75
162.72
188.69
213.92
236.87
255.21
266.43
268.89
262.50
248.81
230.54
210.84
192.71
178.48
169.46
165.62
165.57
166.84
166.56
162.34
153.01
138.78
120.95
101.31
81.50
62.74
45.83
31.38
19.99
12.35
9.04
10.23
15.40
23.18
31.59
38.48
42.21
42.11
38.62
33.14
27.38
22.81
20.19
19.51
20.18
21.34
22.23
22.28
21.22
19.02
15.78
11.71
7.04
1.92
-3.56
-9.35
-15.39
-21.51
-27.52
-33.22
-38.60
-43.81
-49.06
-54.41
-59.58
-63.90
-66.52
-66.84
-64.84
-61.25
-57.35
-54.44
-53.26
-53.70
-54.74
-54.76
-52.18
-45.99
-36.22
-24.01
-11.20
0.22
8.94
14.82
18.92
23.05
29.03
37.92
49.57
62.60
74.62
82.64
83.72
75.92
59.48
37.51
15.77
1.04
-1.26
10.59
33.91
62.65
89.90
110.41
122.09
125.80
123.98
118.93
111.93
103.37
93.56
83.41
74.56
68.77
67.01
68.87
72.57
75.70
76.28
73.74
69.06
64.21
61.14
60.74
62.49
64.76
65.68
64.05
59.87
54.27
48.94
45.16
43.12
41.78
39.26
33.74
24.33
11.45
-3.33
-17.93
-30.48
-39.92
-46.14
-49.86
-52.19
-54.13
-56.27
-58.70
-61.05
-62.74
-63.26
-62.25
-59.57
-55.22
-49.32
-42.20
-34.47
-26.90
-20.15
-14.32
-8.68
-1.98
6.88
18.10
30.64
42.57
52.00
57.99
60.98
62.52
64.47
68.07
73.63
80.65
88.20
95.23
100.71
103.55
102.66
97.33
87.78
75.41
62.45
50.98
41.97
34.59
26.62
15.53
-0.22
-20.33
-42.69
-64.24
-82.11
-94.50
-101.04
-102.42
-99.84
-94.41
-86.91
-77.89
-67.91
-57.75
-48.49
-41.22
-36.79
-35.47
-36.78
-39.62
-42.54
-44.06
-43.04
-38.92
-31.91
-22.99
-13.76
-6.01
-1.22
-0.03
-2.09
-6.31
-11.35
-16.27
-20.69
-24.75
-28.62
-32.22
-35.09
-36.64
-36.43
-34.30
-30.31
-24.51
-16.79
-7.07
4.40
16.80
28.69
38.38
44.46
46.26
44.06
38.95
32.43
26.04
20.93
17.72
16.37
16.37
16.89
17.15
16.59
15.04
12.68
9.90
7.10
4.55
2.38
0.62
-0.70
-1.49
-1.67
-1.17
-0.02
1.61
3.45
5.13
6.26
6.54
5.82
4.24
2.12
-0.05
-1.88
-3.12
-3.78
-3.99
-3.96
-3.77
-3.33
-2.46
-0.93
1.36
4.37
7.87
11.59
15.30
18.85
22.16
25.21
27.90
30.08
31.53
32.13
31.89
30.97
29.63
28.04
26.21
23.98
21.09
17.39
12.97
8.16
3.41
-0.85
-4.50
-7.73
-11.04
-14.94
-19.78
-25.51
-31.69
-37.67
-42.84
-46.80
-49.45
-50.86
-51.12
-50.22
-48.08
-44.70
-40.25
-35.06
-29.52
-23.90
-18.31
-12.76
-7.32
-2.27
1.91
4.66
5.60
4.67
2.15
-1.40
-5.32
-8.99
-11.96
-14.03
-15.22
-15.80
-16.10
-16.43
-16.84
-17.13
-16.91
-15.85
-13.82
-11.08
-8.16
-5.65
-3.97
-3.16
-2.97
-3.04
-3.06
-2.97
-2.91
-3.10
-3.74
-4.94
-6.74
-9.10
-11.92
-14.98
-17.89
-20.13
-21.20
-20.75
-18.71
-15.29
-10.85
-5.80
-0.34
5.66
12.69
21.44
32.40
45.33
58.90
70.80
78.34
79.55
74.06
63.40
50.42
38.13
28.58
22.28
18.60
16.49
15.27
14.82
15.30
16.78
18.98
21.45
23.77
25.64
26.52
25.37
20.73
11.27
-3.13
-20.75
-37.99
-50.34
-53.90
-46.77
-29.70
-5.88
19.92
42.56
57.48
61.61
53.73
34.66
7.10
-24.88
-56.59
-83.68
-102.91
-112.70
-113.16
-105.84
-93.08
-77.46
-61.25
-46.07
-32.77
-21.47
-11.75
-2.95
5.44
13.58
21.22
27.79
32.82
36.21
38.36
40.01
41.80
43.94
46.11
47.67
48.04
47.04
44.99
42.45
39.91
37.48
34.93
31.87
28.00
23.24
17.71
11.55
4.83
-2.40
-9.94
-17.32
-23.81
-28.68
-31.64
-33.12
-34.30
-36.79
-42.07
-50.88
-62.89
-76.61
-89.57
-98.79
-101.42
-95.39
-80.07
-56.52
-27.36
3.89
33.58
58.86
78.05
90.76
97.54
99.44
97.58
92.89
86.00
77.36
67.37
56.54
45.60
35.46
27.03
20.99
17.49
16.14
16.14
16.58
16.73
16.26
15.29
14.15
13.14
12.21
10.91
8.58
4.71
-0.73
-7.20
-13.75
-19.54
-24.16
-27.84
-31.36
-35.78
-42.12
-51.16
-63.21
-77.76
-93.22
-106.75
-114.82
-114.24
-103.52
-83.78
-58.76
-33.72
-13.71
-2.04
0.49
-4.70
-15.06
-28.01
-41.70
-54.97
-66.99
-76.84
-83.45
-85.93
-84.00
-78.10
-69.21
-58.33
-45.96
-31.94
-15.77
2.86
23.57
45.21
66.11
84.54
99.05
108.67
113.01
112.32
107.63
100.75
93.95
89.22
87.40
87.67
87.79
85.04
77.55
65.26
49.97
34.43
20.89
10.03
0.82
-8.48
-18.97
-29.95
-38.98
-43.00
-39.63
-28.13
-9.54
13.83
38.86
61.78
77.98
82.51
71.38
43.63
2.74
-43.42
-84.93
-113.19
-123.98
-118.34
-101.26
-78.91
-56.17
-35.58
-17.88
-3.27
7.70
14.12
15.51
12.62
7.55
3.06
1.38
3.32
7.99
13.30
16.99
17.73
15.66
12.29
9.77
9.85
13.13
18.77
24.94
29.62
31.49
30.37
27.21
23.54
20.84
19.97
21.02
23.43
26.45
29.52
32.40
35.16
37.86
40.46
42.74
44.50
45.76
46.83
48.15
49.94
51.96
53.45
53.43
51.16
46.51
40.10
33.03
26.48
21.25
17.57
15.15
13.49
12.18
11.06
10.22
9.72
9.38
8.74
7.18
4.24
-0.12
-5.35
-10.57
-14.83
-17.51
-18.48
-18.07
-16.75
-14.93
-12.75
-10.15
-7.18
-4.23
-2.03
-1.31
-2.38
-4.73
-7.10
-8.06
-6.71
-3.22
1.22
4.90
6.31
4.64
-0.12
-7.57
-17.16
-28.34
-40.30
-51.65
-60.27
-63.64
-59.67
-47.67
-28.98
-6.98
13.69
28.39
33.72
28.36
13.14
-9.44
-36.10
-63.54
-88.96
-110.23
-125.88
-135.10
-137.63
-133.75
-124.15
-109.70
-91.19
-69.18
-44.25
-17.09
11.32
39.37
65.24
86.88
102.27
109.42
106.88
94.52
74.40
50.98
30.07
16.81
13.37
17.79
24.73
27.79
22.44
7.65
-14.22
-39.08
-63.07
-83.57
-98.86
-107.16
-105.95
-91.94
-62.10
-15.08
47.47
120.18
193.99
257.66
300.40
314.17
295.77
247.22
175.17
89.23
0.35
-80.63
-144.22
-183.53
-195.79
-183.35
-153.71
-117.73
-86.58
-68.43
-66.34
-78.24
-98.61
-121.00
-140.14
-152.91
-158.17
-156.03
-147.18
-132.68
-114.07
-93.52
-73.65
-56.79
-44.23
-35.87
-30.40
-26.04
-21.49
-16.42
-11.50
-7.75
-5.86
-5.62
-6.00
-5.58
-3.35
0.78
5.99
10.99
14.71
16.65
17.01
16.34
15.18
13.85
12.48
11.05
9.61
8.24
6.99
5.78
4.52
3.13
1.73
0.61
0.12
0.50
1.67
3.29
4.83
5.78
5.85
5.12
3.91
2.71
1.94
1.89
2.64
4.14
6.23
8.67
11.12
13.17
14.37
14.42
13.23
11.08
8.52
6.19
4.60
3.91
3.95
4.29
4.49
4.26
3.58
2.58
1.46
0.42
-0.35
-0.57
0.17
2.22
5.63
9.97
14.37
17.81
19.56
19.52
18.24
16.58
15.29
14.65
14.42
14.09
13.27
11.95
10.47
9.31
8.78
8.90
9.43
10.09
10.74
11.46
12.40
13.56
14.71
15.32
14.85
12.96
9.76
5.77
1.73
-1.64
-3.91
-5.03
-5.23
-4.91
-4.43
-3.94
-3.40
-2.62
-1.44
0.20
2.21
4.33
6.33
7.98
9.22
10.03
10.48
10.59
10.35
9.73
8.68
7.22
5.35
3.18
0.82
-1.63
-4.08
-6.49
-8.87
-11.28
-13.77
-16.42
-19.30
-22.40
-25.63
-28.74
-31.42
-33.33
-34.23
-34.01
-32.65
-30.17
-26.53
-21.66
-15.52
-8.26
-0.24
7.93
15.49
21.69
25.95
28.08
28.28
27.10
25.26
23.40
21.88
20.76
19.82
18.82
17.63
16.32
15.09
14.11
13.41
12.85
12.24
11.43
10.41
9.24
7.98
6.60
4.98
3.07
1.03
-0.77
-1.82
-1.75
-0.46
1.78
4.50
7.19
9.48
11.16
12.14
12.32
11.63
10.02
7.56
4.55
1.41
-1.37
-3.42
-4.52
-4.73
-4.32
-3.71
-3.29
-3.36
-3.97
-4.95
-6.03
-6.95
-7.61
-8.15
-8.85
-9.99
-11.65
-13.67
-15.72
-17.47
-18.74
-19.55
-20.03
-20.21
-19.98
-19.06
-17.24
-14.50
-11.09
-7.45
-3.99
-0.94
1.72
4.13
6.41
8.49
10.19
11.22
11.40
10.70
9.23
7.21
4.84
2.36
0.00
-1.98
-3.38
-4.08
-4.18
-3.95
-3.73
-3.83
-4.43
-5.55
-7.15
-9.15
-11.45
-13.87
-16.06
-17.53
-17.83
-16.73
-14.36
-11.21
-8.02
-5.51
-4.12
-3.86
-4.27
-4.54
-3.78
-1.33
3.00
8.84
15.36
21.52
26.32
29.08
29.51
27.65
23.88
18.83
13.29
8.12
4.07
1.57
0.62
0.84
1.62
2.36
2.70
2.59
2.29
2.22
2.77
4.20
6.50
9.40
12.35
14.73
15.94
15.69
14.07
11.59
9.05
7.19
6.47
6.88
7.99
9.19
9.90
9.89
9.21
8.13
6.92
5.74
4.63
3.57
2.60
1.83
1.38
1.25
1.37
1.55
1.65
1.56
1.30
0.89
0.43
-0.04
-0.45
-0.81
-1.18
-1.72
-2.58
-3.79
-5.16
-6.31
-6.76
-6.26
-4.94
-3.28
-1.90
-1.24
-1.31
-1.74
-2.00
-1.69
-0.74
0.59
1.89
2.79
3.08
2.71
1.70
0.15
-1.81
-3.96
-6.05
-7.89
-9.47
-10.93
-12.45
-14.08
-15.59
-16.49
-16.30
-14.86
-12.47
-9.90
-8.10
-7.79
-9.24
-12.20
-15.98
-19.69
-22.42
-23.42
-22.21
-18.76
-13.56
-7.58
-2.03
2.00
3.92
3.76
2.02
-0.60
-3.63
-6.88
-10.39
-14.11
-17.68
-20.43
-21.57
-20.54
-17.31
-12.33
-6.39
-0.32
5.37
10.53
15.34
20.11
25.12
30.51
36.33
42.47
48.69
54.60
59.67
63.42
65.70
66.83
67.60
69.03
71.96
76.71
83.00
90.11
97.19
103.59
109.00
113.50
117.43
121.32
125.69
130.91
137.01
143.49
149.39
153.46
154.50
151.78
145.23
135.43
123.37
110.20
96.99
84.62
73.81
65.04
58.49
53.85
50.28
46.55
41.48
34.46
25.79
16.46
7.64
-0.03
-6.69
-12.91
-18.93
-23.98
-26.15
-23.17
-13.47
2.92
24.22
47.48
69.56
87.93
101.02
108.12
109.24
104.98
96.63
86.14
75.84
67.88
63.45
62.33
62.86
62.64
59.55
52.98
44.41
37.29
35.94
44.08
63.35
92.59
127.99
164.16
195.64
218.24
229.93
230.87
222.94
208.79
191.03
171.69
152.10
133.07
115.21
99.05
84.89
72.55
61.28
49.87
37.09
22.27
5.58
-11.97
-28.96
-44.22
-57.41
-69.26
-81.29
-95.28
-112.49
-133.12
-156.28
-180.42
-203.97
-226.01
-246.63
-266.79
-287.97
-311.82
-339.92
-373.42
-412.32
-454.56
-495.53
-528.43
-546.03
-543.19
-519.13
-478.17
-428.42
-378.85
-336.24
-303.34
-278.93
-259.55
-241.51
-222.18
-200.24
-175.01
-145.95
-112.61
-75.19
-34.98
5.65
43.88
77.61
106.28
130.96
153.80
176.87
201.18
226.27
250.46
271.60
288.19
299.99
308.02
313.85
318.51
321.69
321.87
317.36
307.70
294.55
281.25
271.47
267.44
269.05
274.15
279.81
283.62
284.32
281.66
275.73
266.40
253.48
236.99
217.60
196.51
175.05
154.17
134.12
114.53
94.73
74.07
52.20
29.27
5.87
-17.12
-38.93
-59.39
-79.28
-100.26
-124.26
-152.32
-183.78
-216.00
-245.28
-268.42
-284.32
-294.69
-303.47
-315.33
-333.89
-360.59
-394.37
-432.12
-469.35
-501.08
-522.78
-531.55
-527.13
-512.20
-491.74
-471.46
-455.83
-446.67
-442.85
-441.02
-437.10
-427.84
-412.01
-390.77
-367.16
-344.98
-327.31
-315.55
-309.23
-306.70
-305.92
-305.08
-302.41
-295.80
-282.60
-260.31
-227.59
-185.29
-136.49
-85.69
-37.41
5.10
40.52
69.25
92.71
112.39
128.99
142.01
149.79
150.25
142.02
125.70
104.45
83.56
69.21
66.77
79.39
107.25
147.55
195.11
243.34
285.32
315.32
330.04
329.51
317.10
298.42
279.50
264.81
256.08
252.20
250.32
247.43
241.74
233.26
223.45
214.21
206.93
201.85
198.04
194.08
188.78
181.83
174.05
166.97
162.31
161.28
164.29
170.98
180.41
191.12
201.03
207.43
207.20
197.42
176.30
143.68
101.15
51.16
-4.14
-63.76
-127.64
-195.28
-263.83
-327.13
-376.49
-403.44
-403.16
-376.91
-331.91
-278.70
-227.25
-183.81
-149.98
-124.20
-104.36
-89.74
-81.29
-80.29
-86.77
-98.78
-113.07
-126.55
-137.24
-144.36
-147.35
-144.68
-133.64
-111.14
-75.31
-26.96
30.32
91.16
150.42
205.05
254.82
301.91
349.42
399.72
453.13
507.40
557.97
599.04
625.09
632.38
620.00
589.96
546.45
494.56
438.93
383.03
329.00
278.10
230.93
187.69
147.94
110.59
74.25
37.70
0.42
-37.41
-75.03
-111.51
-145.70
-176.08
-200.81
-218.09
-226.96
-227.79
-222.33
-212.79
-200.59
-185.36
-165.36
-139.10
-107.18
-73.15
-42.19
-18.56
-3.13
7.08
17.17
31.46
51.28
74.72
98.09
118.26
133.75
144.57
150.92
152.19
147.00
134.23
114.50
90.64
66.95
47.74
35.81
31.47
32.63
35.69
36.89
33.58
24.83
11.39
-5.11
-23.11
-41.77
-61.17
-81.69
-103.22
-124.29
-141.93
-152.06
-150.74
-135.57
-106.91
-68.22
-25.00
16.72
52.20
78.89
96.38
105.58
107.82
104.36
96.57
86.08
74.94
65.07
57.66
52.82
49.49
46.03
40.93
33.37
23.53
12.30
0.85
-9.92
-19.68
-28.72
-37.70
-47.27
-57.73
-69.00
-80.66
-92.25
-103.46
-114.28
-125.08
-136.60
-149.98
-166.50
-187.14
-211.93
-239.55
-267.36
-292.14
-311.26
-323.71
-330.49
-334.20
-337.80
-343.37
-351.13
-359.54
-365.95
-367.70
-362.95
-350.95
-331.79
-306.36
-276.62
-246.05
-219.46
-201.80
-195.90
-200.38
-208.98
-212.19
-200.58
-168.58
-116.64
-51.06
18.49
82.14
132.36
164.94
178.93
175.86
159.11
133.34
103.81
75.42
51.62
33.57
20.11
8.44
-4.58
-20.96
-40.74
-61.46
-78.97
-88.58
-86.43
-70.45
-40.66
1.26
52.89
111.62
174.67
238.42
297.95
347.21
380.46
394.08
388.07
366.29
335.06
300.89
268.47
239.89
215.23
193.81
175.12
159.11
145.65
134.00
122.83
110.71
96.98
82.19
67.67
54.96
44.79
36.67
29.11
20.40
9.45
-3.65
-17.81
-31.69
-44.45
-56.41
-68.97
-84.07
-103.66
-129.32
-162.01
-201.53
-245.82
-290.60
-330.00
-358.40
-372.90
-374.90
-369.63
-363.58
-361.07
-362.11
-362.65
-357.32
-342.73
-319.28
-290.82
-262.36
-237.76
-218.53
-204.44
-194.89
-189.95
-190.38
-196.78
-208.67
-223.86
-238.83
-249.67
-253.22
-247.89
-234.06
-213.83
-190.27
-166.42
-144.51
-125.52
-109.39
-95.55
-83.61
-73.66
-66.24
-61.90
-60.76
-62.35
-65.64
-69.51
-73.14
-76.21
-78.86
-81.44
-84.21
-87.09
-89.70
-91.45
-91.81
-90.52
-87.60
-83.39
-78.32
-72.81
-67.13
-61.45
-55.81
-50.29
-44.97
-39.99
-35.50
-31.58
-28.24
-25.39
-22.92
-20.68
-18.56
-16.48
-14.43
-12.44
-10.57
-8.90
-7.50
-6.44
-5.79
-5.64
-6.04
-7.07
-8.71
-10.95
-13.69
-16.79
-20.06
-23.28
-26.21
-28.60
-30.20
-30.78
-30.16
-28.18
-24.78
-20.00
-13.99
-6.97
0.74
8.79
16.87
24.68
31.96
38.47
44.01
48.37
51.35
52.85
52.86
51.50
48.95
45.49
41.40
36.87
32.06
27.03
21.89
16.80
12.09
8.24
5.87
5.58
7.79
12.68
20.12
29.82
41.46
54.89
70.18
87.58
107.36
129.54
153.84
179.49
205.38
230.31
253.35
274.25
293.76
313.65
335.99
362.07
391.27
420.70
445.56
460.77
462.28
448.12
418.85
377.25
327.79
275.99
227.69
187.69
158.48
139.42
127.13
117.28
106.64
94.45
82.20
72.09
65.33
61.60
59.73
58.88
59.04
60.32
62.11
62.70
60.14
53.71
44.92
37.03
33.37
35.48
42.19
50.77
58.61
64.33
67.79
69.14
67.63
61.84
51.10
37.03
23.85
17.07
20.87
35.97
59.18
84.73
106.77
121.63
128.59
129.20
125.73
119.99
112.88
104.71
95.68
86.47
78.26
72.36
69.64
70.19
73.18
77.21
80.90
83.43
84.93
86.09
87.65
89.77
91.73
92.15
89.70
83.75
74.80
64.41
54.59
47.12
43.01
42.29
44.05
46.87
49.33
50.32
49.14
45.41
39.01
30.08
19.12
7.08
-4.80
-15.37
-24.00
-30.75
-36.43
-42.06
-48.47
-55.90
-63.92
-71.74
-78.66
-84.48
-89.67
-95.01
-101.22
-108.52
-116.48
-124.21
-130.71
-135.29
-137.85
-138.75
-138.62
-138.04
-137.22
-136.05
-134.14
-131.06
-126.58
-120.83
-114.22
-107.24
-100.03
-92.16
-82.81
-71.26
-57.50
-42.56
-28.20
-16.34
-8.19
-3.85
-2.49
-3.07
-5.09
-8.62
-13.79
-19.98
-25.50
-28.14
-26.31
-20.11
-11.51
-3.53
1.27
2.07
0.34
-0.80
2.12
11.62
28.24
50.59
75.72
100.07
120.26
133.99
140.56
140.91
137.20
131.81
126.52
121.88
117.20
111.19
102.82
92.00
79.73
67.65
57.31
49.57
44.55
41.92
41.25
42.20
44.29
46.38
46.64
43.38
36.43
27.85
21.23
19.57
22.85
27.28
26.85
16.70
-3.73
-29.83
-53.81
-68.51
-70.68
-61.96
-47.23
-31.75
-18.80
-9.22
-2.43
2.19
4.64
4.75
2.95
0.54
-0.50
1.87
8.85
20.38
35.09
50.64
64.23
73.30
76.19
72.74
64.21
52.81
40.82
29.66
19.58
9.93
-0.04
-10.37
-20.04
-27.43
-31.28
-31.41
-29.04
-26.22
-24.99
-26.59
-31.14
-37.89
-45.74
-53.71
-61.09
-67.41
-72.29
-75.38
-76.47
-75.54
-72.70
-68.03
-61.52
-53.08
-42.88
-31.54
-20.19
-10.13
-2.29
3.28
7.39
11.27
15.89
21.43
27.22
32.29
35.96
38.31
40.04
42.00
44.62
47.64
50.27
51.68
51.32
49.11
45.25
39.97
33.44
25.91
17.97
10.69
5.48
3.65
5.86
11.75
19.97
28.64
36.06
41.27
44.30
45.92
47.06
48.30
49.65
50.59
50.51
49.04
46.23
42.51
38.45
34.53
31.08
28.27
26.15
24.71
23.80
23.16
22.46
21.35
19.54
16.86
13.27
8.85
3.83
-1.42
-6.49
-11.00
-14.84
-18.23
-21.67
-25.77
-30.86
-36.81
-42.95
-48.26
-51.83
-53.10
-52.11
-49.43
-45.85
-42.11
-38.67
-35.61
-32.70
-29.58
-25.96
-21.84
-17.50
-13.31
-9.57
-6.31
-3.37
-0.49
2.47
5.50
8.41
10.98
12.94
13.90
13.18
9.86
3.26
-6.49
-18.01
-28.79
-35.96
-37.40
-32.49
-22.22
-8.67
5.77
19.10
29.90
37.29
40.82
40.60
37.49
33.02
29.08
27.08
27.27
28.56
29.05
27.02
21.90
14.56
6.95
1.16
-1.52
-1.08
1.46
4.71
7.72
10.29
12.88
15.94
19.45
22.53
23.73
21.50
14.81
3.63
-11.03
-27.23
-42.46
-54.14
-60.18
-59.42
-51.92
-38.94
-22.62
-5.52
9.93
21.85
29.14
31.65
30.07
25.83
20.69
16.29
13.74
13.39
14.98
17.89
21.60
25.81
30.27
34.62
38.20
40.15
39.63
35.99
28.68
17.01
0.21
-22.17
-49.42
-79.08
-106.96
-128.29
-139.34
-138.91
-128.63
-112.19
-93.57
-75.57
-59.23
-44.29
-30.22
-16.99
-5.30
3.95
10.27
13.93
15.78
16.79
17.59
18.24
18.37
17.54
15.46
12.22
8.28
4.41
1.44
0.04
0.46
2.43
5.23
8.01
10.06
11.11
11.30
10.96
10.40
9.67
8.58
6.95
4.77
2.35
0.14
-1.42
-2.09
-1.87
-0.85
0.93
3.52
6.99
11.15
15.48
19.08
21.04
20.78
18.45
14.90
11.44
9.35
9.43
11.87
16.26
21.84
27.72
33.09
37.28
39.85
40.65
39.87
38.06
35.97
34.27
33.36
33.15
33.13
32.53
30.64
27.08
21.96
15.87
9.66
4.16
-0.08
-2.96
-4.76
-5.97
-7.10
-8.49
-10.29
-12.44
-14.69
-16.70
-18.16
-18.80
-18.58
-17.71
-16.60
-15.78
-15.71
-16.62
-18.45
-20.82
-23.18
-24.96
-25.74
-25.38
-24.02
-22.13
-20.32
-19.22
-19.29
-20.61
-22.85
-25.39
-27.47
-28.55
-28.44
-27.29
-25.42
-23.10
-20.39
-17.21
-13.48
-9.27
-4.85
-0.67
2.83
5.22
6.20
5.55
3.19
-0.68
-5.52
-10.39
-14.15
-15.81
-14.90
-11.66
-7.00
-2.15
1.79
4.17
5.00
4.78
4.20
3.85
4.10
5.11
6.97
9.85
13.92
19.29
25.81
33.00
40.11
46.20
50.33
51.81
50.39
46.35
40.49
33.93
27.72
22.45
18.14
14.37
10.67
6.98
3.80
1.98
2.26
4.82
9.18
14.46
19.80
24.63
28.63
31.44
32.38
30.47
24.68
14.47
0.19
-16.85
-34.73
-51.38
-65.10
-74.86
-80.37
-81.88
-80.10
-75.97
-70.57
-65.13
-60.85
-58.83
-59.74
-63.61
-69.63
-76.21
-81.24
-82.75
-79.45
-71.10
-58.64
-43.74
-28.26
-13.71
-0.87
10.11
19.52
27.74
35.04
41.65
47.82
53.76
59.36
63.93
66.07
64.02
56.37
42.79
24.45
3.79
-16.31
-33.40
-46.05
-53.74
-56.39
-53.87
-46.06
-33.36
-17.28
-0.59
13.35
21.72
23.35
19.12
11.42
2.99
-4.30
-9.97
-14.72
-19.67
-25.48
-31.97
-38.31
-43.55
-47.17
-49.25
-50.25
-50.67
-50.71
-50.24
-48.97
-46.71
-43.45
-39.29
-34.27
-28.33
-21.39
-13.62
-5.51
2.10
8.38
12.74
15.09
15.70
15.03
13.51
11.39
8.82
5.93
2.87
-0.21
-3.26
-6.31
-9.51
-12.90
-16.39
-19.74
-22.69
-25.07
-26.91
-28.36
-29.62
-30.80
-31.94
-33.08
-34.30
-35.73
-37.46
-39.49
-41.64
-43.59
-44.99
-45.46
-44.69
-42.38
-38.30
-32.31
-24.48
-15.10
-4.69
6.06
16.36
25.45
32.72
37.82
40.77
41.92
41.85
41.17
40.28
39.34
38.28
36.93
35.16
32.96
30.35
27.46
24.41
21.34
18.37
15.55
12.89
10.36
7.97
5.85
4.19
3.20
3.02
3.66
5.06
7.19
10.07
13.86
18.67
24.52
31.17
38.27
45.38
52.12
58.31
63.92
69.05
73.90
78.72
83.87
89.80
96.90
105.27
114.39
123.00
129.24
131.10
126.95
116.00
98.56
75.84
49.70
22.22
-4.66
-29.33
-50.60
-67.67
-80.14
-88.08
-92.10
-93.47
-93.85
-94.79
-96.96
-99.69
-101.05
-98.76
-91.30
-78.81
-63.09
-46.80
-32.30
-20.85
-12.41
-6.16
-1.24
2.85
6.21
8.91
11.17
13.34
15.58
17.57
18.43
17.03
12.38
4.11
-7.31
-20.56
-33.86
-45.42
-53.94
-58.88
-60.54
-59.68
-57.22
-53.78
-49.60
-44.58
-38.56
-31.48
-23.58
-15.32
-7.22
0.29
6.98
12.84
17.90
22.19
25.55
27.75
28.51
27.72
25.51
22.24
18.37
14.32
10.31
6.29
2.12
-2.33
-6.93
-11.29
-14.85
-17.12
-17.91
-17.49
-16.49
-15.65
-15.49
-16.09
-17.04
-17.53
-16.73
-13.94
-8.88
-1.73
6.77
15.47
22.90
27.63
28.74
26.10
20.60
13.93
8.03
4.53
4.17
6.78
11.49
17.24
23.13
28.65
33.49
37.34
39.86
40.72
39.93
37.98
35.82
34.48
34.64
36.32
38.93
41.67
43.92
45.63
47.25
49.40
52.43
56.23
60.27
63.87
66.55
68.12
68.62
68.16
66.72
64.12
60.08
54.24
46.30
36.05
23.48
8.90
-6.96
-22.95
-37.71
-49.96
-58.88
-64.22
-66.39
-66.15
-64.48
-62.23
-60.02
-58.13
-56.51
-54.90
-53.03
-50.73
-48.06
-45.26
-42.66
-40.50
-38.84
-37.57
-36.48
-35.35
-34.09
-32.69
-31.21
-29.66
-27.96
-25.98
-23.60
-20.81
-17.75
-14.69
-11.96
-9.76
-8.12
-6.87
-5.70
-4.40
-2.91
-1.38
-0.04
0.90
1.44
1.72
1.94
2.19
2.45
2.52
2.21
1.44
0.31
-0.94
-2.03
-2.85
-3.45
-4.09
-5.14
-6.83
-9.17
-11.85
-14.32
-15.96
-16.35
-15.39
-13.30
-10.52
-7.52
-4.61
-1.95
0.42
2.47
4.17
5.43
6.22
6.54
6.49
6.22
5.88
5.62
5.53
5.63
5.89
6.29
6.77
7.31
7.89
8.43
8.83
8.89
8.46
7.44
5.92
4.08
2.18
0.43
-1.03
-2.13
-2.81
-2.93
-2.34
-0.98
1.11
3.65
6.28
8.58
10.24
11.08
11.11
10.42
9.13
7.36
5.24
2.88
0.47
-1.73
-3.41
-4.28
-4.19
-3.19
-1.57
0.28
1.95
3.16
3.81
3.92
3.57
2.79
1.61
0.02
-1.94
-4.18
-6.56
-8.93
-11.14
-13.05
-14.53
-15.45
-15.68
-15.17
-13.97
-12.23
-10.19
-8.10
-6.17
-4.53
-3.18
-2.05
-1.02
-0.01
1.03
2.06
3.00
3.71
4.08
4.07
3.70
3.10
2.46
1.89
1.40
0.90
0.21
-0.76
-1.98
-3.31
-4.59
-5.71
-6.75
-7.86
-9.21
-10.86
-12.71
-14.56
-16.16
-17.34
-18.03
-18.23
-17.99
-17.36
-16.37
-15.08
-13.56
-11.98
-10.48
-9.17
-8.08
-7.12
-6.19
-5.20
-4.17
-3.22
-2.53
-2.30
-2.66
-3.67
-5.18
-6.85
-8.10
-8.34
-7.16
-4.65
-1.50
1.16
2.15
0.75
-3.00
-8.30
-13.92
-18.59
-21.41
-21.99
-20.43
-17.13
-12.64
-7.55
-2.38
2.46
6.74
10.45
13.74
16.88
20.20
23.92
28.17
32.91
37.92
42.90
47.48
51.30
54.16
56.00
56.92
57.14
56.87
56.26
55.31
53.93
51.95
49.30
46.00
42.23
38.34
34.67
31.48
28.85
26.64
24.61
22.49
20.15
17.59
14.97
12.49
10.29
8.40
6.75
5.21
3.66
2.05
0.42
-1.16
-2.54
-3.67
-4.51
-5.16
-5.75
-6.46
-7.35
-8.41
-9.48
-10.43
-11.15
-11.64
-11.99
-12.29
-12.57
-12.79
-12.88
-12.80
-12.56
-12.20
-11.74
-11.18
-10.48
-9.58
-8.48
-7.25
-6.02
-4.90
-4.00
-3.34
-2.90
-2.63
-2.46
-2.36
-2.25
-2.06
-1.69
-1.08
-0.20
0.87
1.95
2.82
3.32
3.41
3.23
2.97
2.79
2.74
2.71
2.53
2.08
1.37
0.51
-0.30
-0.91
-1.25
-1.38
-1.46
-1.66
-2.11
-2.87
-3.89
-5.09
-6.34
-7.55
-8.68
-9.69
-10.55
-11.22
-11.69
-11.97
-12.09
-12.09
-12.04
-11.96
-11.88
-11.74
-11.54
-11.25
-10.92
-10.64
-10.51
-10.62
-11.00
-11.59
-12.25
-12.87
-13.32
-13.54
-13.50
-13.14
-12.42
-11.30
-9.84
-8.13
-6.35
-4.64
-3.07
-1.67
-0.40
0.74
1.75
2.62
3.37
4.06
4.77
5.62
6.70
8.12
9.93
12.10
14.44
16.62
18.19
18.79
18.28
16.79
14.69
12.44
10.39
8.69
7.32
6.11
4.94
3.69
2.35
0.94
-0.55
-2.11
-3.77
-5.55
-7.38
-9.07
-10.37
-10.99
-10.77
-9.80
-8.36
-6.87
-5.69
-4.99
-4.68
-4.58
-4.52
-4.44
-4.42
-4.55
-4.82
-5.04
-4.95
-4.33
-3.14
-1.55
0.10
1.47
2.31
2.59
2.39
1.92
1.43
1.10
1.06
1.38
2.01
2.88
3.81
4.60
5.08
5.13
4.68
3.79
2.59
1.25
-0.06
-1.19
-2.06
-2.63
-2.91
-2.95
-2.81
-2.57
-2.24
-1.85
-1.40
-0.95
-0.63
-0.57
-0.92
-1.70
-2.82
-4.08
-5.29
-6.28
-7.01
-7.46
-7.63
-7.50
-7.08
-6.38
-5.55
-4.77
-4.19
-3.85
-3.66
-3.44
-3.04
-2.43
-1.71
-1.08
-0.75
-0.81
-1.25
-1.95
-2.72
-3.39
-3.87
-4.11
-4.09
-3.84
-3.35
-2.64
-1.76
-0.80
0.08
0.77
1.17
1.30
1.25
1.08
0.83
0.49
0.01
-0.59
-1.23
-1.79
-2.17
-2.35
-2.39
-2.36
-2.31
-2.23
-2.12
-1.99
-1.90
-1.94
-2.20
-2.66
-3.28
-3.99
-4.73
-5.48
-6.20
-6.79
-7.05
-6.81
-5.99
-4.71
-3.27
-2.04
-1.26
-0.97
-0.94
-0.83
-0.30
0.77
2.27
3.88
5.23
6.03
6.15
5.67
4.76
3.63
2.46
1.35
0.41
-0.30
-0.71
-0.79
-0.58
-0.21
0.12
0.22
-0.04
-0.67
-1.58
-2.55
-3.39
-3.93
-4.06
-3.80
-3.21
-2.35
-1.30
-0.13
1.10
2.31
3.40
4.31
5.03
5.63
6.25
6.96
7.76
8.52
9.03
9.12
8.76
8.05
7.24
6.57
6.17
6.00
5.89
5.59
4.91
3.81
2.39
0.82
-0.74
-2.21
-3.55
-4.76
-5.80
-6.61
-7.11
-7.32
-7.32
-7.24
-7.20
-7.23
-7.25
-7.13
-6.70
-5.91
-4.82
-3.55
-2.27
-1.09
-0.05
0.85
1.62
2.26
2.69
2.85
2.74
2.44
2.12
1.98
2.16
2.63
3.19
3.56
3.51
3.02
2.29
1.74
1.75
2.53
3.93
5.55
6.89
7.62
7.75
7.71
8.10
9.44
11.93
15.29
18.91
22.13
24.60
26.46
28.37
31.27
36.09
43.43
53.41
65.49
78.45
90.44
99.23
102.72
99.57
89.76
74.78
57.33
40.50
26.72
17.19
11.79
9.60
9.69
11.65
15.61
21.84
30.08
39.13
46.98
51.48
51.24
46.43
38.71
30.73
24.96
22.76
24.00
27.26
30.61
32.40
31.71
28.40
22.84
15.62
7.40
-1.07
-8.93
-15.32
-19.70
-22.04
-22.86
-23.04
-23.53
-24.90
-27.25
-30.23
-33.31
-36.11
-38.60
-41.18
-44.49
-49.10
-55.22
-62.44
-69.72
-75.55
-78.35
-76.88
-70.76
-60.71
-48.50
-36.58
-27.41
-22.66
-22.71
-26.52
-32.09
-37.12
-39.79
-39.28
-35.83
-30.55
-25.03
-20.85
-19.21
-20.49
-24.18
-28.93
-33.00
-34.80
-33.47
-29.17
-23.04
-16.72
-11.79
-9.24
-9.26
-11.25
-14.14
-16.79
-18.37
-18.58
-17.69
-16.32
-15.15
-14.59
-14.65
-14.95
-15.01
-14.37
-12.84
-10.50
-7.72
-5.07
-3.25
-2.89
-4.39
-7.65
-11.96
-16.10
-18.78
-19.04
-16.75
-12.63
-8.02
-4.33
-2.50
-2.73
-4.44
-6.68
-8.49
-9.29
-8.99
-7.97
-6.84
-6.20
-6.45
-7.67
-9.63
-11.93
-14.07
-15.61
-16.28
-15.93
-14.68
-12.83
-10.88
-9.42
-8.93
-9.62
-11.35
-13.60
-15.73
-17.21
-17.75
-17.37
-16.32
-14.83
-13.07
-11.07
-8.71
-5.88
-2.57
1.07
4.66
7.73
9.86
10.86
10.91
10.46
10.06
10.07
10.54
11.18
11.58
11.44
10.73
9.73
8.80
8.27
8.26
8.72
9.44
10.17
10.66
10.65
9.98
8.69
7.03
5.50
4.59
4.60
5.39
6.42
6.95
6.41
4.71
2.32
0.04
-1.31
-1.28
0.07
2.24
4.50
6.19
6.99
6.96
6.54
6.31
6.70
7.78
9.13
9.95
9.33
6.55
1.40
-5.72
-13.91
-21.94
-28.63
-33.11
-35.04
-34.64
-32.61
-29.86
-27.20
-25.22
-24.13
-23.91
-24.46
-25.70
-27.63
-30.25
-33.40
-36.76
-39.78
-41.89
-42.60
-41.67
-39.15
-35.38
-30.90
-26.27
-21.98
-18.30
-15.24
-12.62
-10.16
-7.61
-4.85
-1.93
0.98
3.65
5.82
7.24
7.76
7.34
6.13
4.49
2.93
1.97
2.02
3.22
5.42
8.17
10.92
13.12
14.40
14.64
13.90
12.42
10.49
8.36
6.27
4.38
2.79
1.53
0.55
-0.28
-1.01
-1.65
-2.03
-2.00
-1.40
-0.28
1.21
2.82
4.32
5.61
6.66
7.52
8.19
8.66
8.93
9.06
9.17
9.43
9.92
10.65
11.52
12.35
12.96
13.18
12.88
12.05
10.73
9.09
7.34
5.70
4.40
3.53
3.13
3.13
3.39
3.72
3.93
3.81
3.28
2.37
1.28
0.29
-0.28
-0.21
0.52
1.78
3.31
4.86
6.21
7.25
7.95
8.34
8.44
8.32
8.03
7.69
7.35
7.09
6.88
6.68
6.43
6.10
5.70
5.24
4.75
4.24
3.74
3.30
2.95
2.72
2.57
2.39
2.11
1.68
1.17
0.71
0.39
0.25
0.21
0.18
0.07
-0.10
-0.34
-0.67
-1.14
-1.78
-2.57
-3.39
-3.99
-4.14
-3.68
-2.70
-1.44
-0.24
0.64
1.09
1.19
1.13
1.07
1.07
1.09
1.04
0.89
0.74
0.72
0.93
1.30
1.67
1.84
1.74
1.46
1.15
0.94
0.83
0.72
0.51
0.18
-0.22
-0.59
-0.92
-1.26
-1.72
-2.30
-2.92
-3.40
-3.60
-3.46
-3.03
-2.41
-1.64
-0.77
0.20
1.17
2.00
2.52
2.64
2.37
1.89
1.40
1.12
1.13
1.44
1.94
2.45
2.81
2.86
2.54
1.87
0.95
-0.03
-0.89
-1.51
-1.79
-1.73
-1.42
-1.00
-0.66
-0.60
-0.97
-1.78
-2.92
-4.17
-5.26
-5.99
-6.26
-6.06
-5.50
-4.70
-3.75
-2.72
-1.65
-0.56
0.51
1.50
2.36
3.06
3.64
4.15
4.66
5.21
5.80
6.37
6.86
7.26
7.59
7.91
8.24
8.48
8.51
8.19
7.49
6.52
5.45
4.47
3.67
3.01
2.33
1.53
0.57
-0.42
-1.22
-1.63
-1.58
-1.13
-0.45
0.31
1.06
1.81
2.60
3.45
4.31
5.06
5.55
5.69
5.51
5.15
4.79
4.59
4.58
4.70
4.79
4.76
4.54
4.17
3.67
3.01
2.10
0.86
-0.69
-2.35
-3.82
-4.81
-5.16
-4.95
-4.43
-3.93
-3.73
-3.99
-4.74
-5.87
-7.15
-8.27
-8.91
-8.80
-7.86
-6.22
-4.15
-1.99
0.03
1.82
3.37
4.73
5.90
6.84
7.55
8.03
8.39
8.74
9.15
9.61
10.04
10.35
10.52
10.56
10.52
10.40
10.13
9.63
8.88
7.92
6.95
6.19
5.80
5.77
5.91
5.89
5.39
4.23
2.48
0.44
-1.43
-2.73
-3.15
-2.67
-1.43
0.26
2.10
3.82
5.24
6.18
6.47
5.98
4.66
2.65
0.26
-2.08
-3.99
-5.23
-5.79
-5.79
-5.39
-4.72
-3.81
-2.71
-1.47
-0.23
0.85
1.66
2.21
2.61
3.03
3.56
4.15
4.69
5.03
5.10
4.96
4.80
4.86
5.36
6.40
7.97
9.92
12.04
14.14
16.12
18.00
19.94
22.09
24.47
26.96
29.23
30.95
31.89
32.06
31.67
31.04
30.42
29.97
29.64
29.28
28.67
27.56
25.72
23.02
19.40
14.97
9.98
4.74
-0.39
-5.10
-9.19
-12.57
-15.33
-17.77
-20.30
-23.28
-26.89
-30.96
-35.10
-38.87
-42.00
-44.49
-46.50
-48.15
-49.39
-49.93
-49.47
-47.82
-45.01
-41.20
-36.56
-31.19
-25.20
-18.88
-12.78
-7.51
-3.49
-0.68
1.44
3.58
6.26
9.55
13.09
16.37
19.14
21.50
23.91
26.82
30.42
34.56
38.86
42.90
46.48
49.67
52.73
55.99
59.64
63.60
67.48
70.73
72.87
73.68
73.27
72.03
70.42
68.83
67.60
67.16
68.21
71.77
78.93
90.56
107.05
128.27
153.72
182.68
214.19
246.63
277.46
303.25
320.32
325.87
318.95
300.86
274.53
243.42
210.21
176.15
141.26
104.99
67.07
27.88
-11.77
-51.18
-90.19
-129.39
-170.02
-213.53
-261.07
-312.93
-367.94
-423.21
-474.28
-515.74
-542.46
-550.85
-539.76
-510.54
-466.33
-410.92
-347.95
-280.68
-212.32
-146.44
-86.78
-36.66
1.96
29.02
46.13
55.76
60.25
61.36
60.32
58.39
57.15
58.33
63.07
71.40
82.06
93.10
102.76
110.14
115.17
118.06
118.56
115.61
107.74
93.85
74.00
49.76
23.74
-1.09
-22.32
-38.51
-49.23
-54.78
-55.83
-53.22
-47.92
-41.05
-33.78
-27.19
-22.15
-19.08
-17.96
-18.32
-19.46
-20.59
-21.13
-20.84
-19.89
-18.68
-17.66
-17.12
-17.10
-17.38
-17.64
-17.61
-17.17
-16.36
-15.35
-14.31
-13.31
-12.31
-11.18
-9.81
-8.12
-6.18
-4.15
-2.24
-0.60
0.66
1.55
2.13
2.51
2.87
3.38
4.22
5.50
7.19
9.16
11.15
12.91
14.22
14.95
15.05
14.56
13.56
12.19
10.61
9.01
7.55
6.26
5.07
3.78
2.16
0.09
-2.40
-5.07
-7.50
-9.22
-9.83
-9.11
-7.07
-3.96
-0.17
3.86
7.72
11.07
13.64
15.13
15.28
13.95
11.21
7.42
3.14
-1.03
-4.62
-7.41
-9.43
-10.83
-11.72
-12.14
-12.08
-11.57
-10.78
-9.95
-9.32
-8.97
-8.79
-8.50
-7.85
-6.68
-5.06
-3.14
-1.09
1.01
3.18
5.52
8.07
10.82
13.63
16.30
18.56
20.13
20.71
20.01
17.82
14.10
9.05
3.15
-2.91
-8.35
-12.46
-14.78
-15.19
-13.91
-11.35
-8.03
-4.37
-0.65
2.99
6.55
9.98
13.18
15.92
17.87
18.68
18.10
16.05
12.65
8.20
3.10
-2.18
-7.19
-11.51
-14.85
-17.04
-18.07
-18.06
-17.21
-15.76
-13.90
-11.85
-9.78
-7.89
-6.36
-5.29
-4.73
-4.62
-4.89
-5.47
-6.34
-7.52
-9.04
-10.84
-12.83
-14.83
-16.60
-17.95
-18.67
-18.62
-17.72
-15.98
-13.49
-10.47
-7.25
-4.23
-1.83
-0.34
0.12
-0.32
-1.34
-2.52
-3.42
-3.69
-3.15
-1.73
0.53
3.55
7.18
11.20
15.32
19.17
22.40
24.77
26.25
26.96
27.12
26.96
26.65
26.32
26.09
26.08
26.38
27.03
27.96
29.07
30.19
31.15
31.86
32.21
32.14
31.61
30.61
29.16
27.27
24.93
22.15
18.91
15.30
11.50
7.81
4.55
1.96
0.16
-0.92
-1.45
-1.61
-1.55
-1.32
-0.90
-0.25
0.66
1.83
3.17
4.57
5.81
6.66
6.90
6.38
5.13
3.35
1.34
-0.55
-2.12
-3.35
-4.40
-5.57
-7.24
-9.72
-13.15
-17.48
-22.41
-27.41
-31.90
-35.30
-37.25
-37.62
-36.46
-33.98
-30.35
-25.83
-20.68
-15.33
-10.23
-5.85
-2.50
-0.20
1.25
2.19
2.97
3.79
4.71
5.68
6.56
7.16
7.29
6.79
5.59
3.77
1.60
-0.57
-2.39
-3.64
-4.30
-4.52
-4.54
-4.60
-4.88
-5.51
-6.55
-8.06
-10.03
-12.35
-14.78
-16.94
-18.39
-18.72
-17.66
-15.15
-11.34
-6.57
-1.36
3.62
7.61
9.86
9.88
7.59
3.48
-1.46
-5.98
-8.96
-9.73
-8.25
-5.07
-1.05
2.92
6.23
8.58
10.02
10.74
10.96
10.84
10.43
9.74
8.78
7.64
6.39
5.15
3.93
2.73
1.52
0.30
-0.84
-1.74
-2.26
-2.33
-1.95
-1.21
-0.25
0.78
1.72
2.40
2.65
2.36
1.50
0.28
-0.97
-1.87
-2.05
-1.36
0.17
2.30
4.68
6.99
8.96
10.48
11.57
12.35
12.98
13.61
14.25
14.85
15.34
15.60
15.51
14.98
13.95
12.33
10.10
7.23
3.77
-0.24
-4.69
-9.46
-14.33
-19.03
-23.25
-26.64
-28.92
-29.89
-29.48
-27.74
-24.80
-20.95
-16.52
-11.88
-7.35
-3.19
0.47
3.50
5.82
7.33
7.92
7.58
6.40
4.64
2.64
0.73
-0.82
-1.97
-2.77
-3.41
-4.01
-4.62
-5.16
-5.51
-5.56
-5.31
-4.88
-4.41
-3.98
-3.55
-2.90
-1.83
-0.15
2.09
4.70
7.35
9.71
11.56
12.76
13.31
13.22
12.52
11.31
9.72
8.00
6.45
5.34
4.80
4.84
5.26
5.81
6.29
6.61
6.78
6.86
6.91
6.92
6.85
6.69
6.43
6.12
5.78
5.47
5.19
4.98
4.86
4.77
4.63
4.24
3.40
1.95
-0.08
-2.53
-5.06
-7.38
-9.27
-10.70
-11.75
-12.57
-13.27
-13.88
-14.35
-14.67
-14.83
-14.88
-14.91
-14.97
-15.07
-15.15
-15.10
-14.84
-14.29
-13.45
-12.34
-11.00
-9.47
-7.83
-6.19
-4.66
-3.39
-2.49
-2.00
-1.88
-1.98
-2.16
-2.24
-2.16
-1.87
-1.42
-0.88
-0.32
0.17
0.52
0.65
0.48
-0.04
-0.86
-1.92
-3.10
-4.32
-5.53
-6.72
-7.91
-9.05
-10.02
-10.70
-10.95
-10.71
-10.06
-9.13
-8.10
-7.09
-6.17
-5.28
-4.29
-3.01
-1.28
1.01
3.85
7.13
10.60
13.92
16.71
18.64
19.54
19.47
18.75
17.81
17.03
16.54
16.16
15.48
14.08
11.86
9.14
6.66
5.20
5.28
6.87
9.45
12.37
15.43
19.22
24.96
33.89
46.43
61.77
78.05
93.32
106.27
116.64
124.82
131.28
136.41
141.13
147.70
159.95
182.09
216.61
262.34
314.04
364.08
405.42
434.00
449.58
454.38
450.98
440.70
423.53
399.23
368.67
334.37
299.74
267.83
240.13
216.33
194.80
173.69
151.69
128.51
104.80
81.75
60.58
42.03
26.01
11.60
-2.70
-18.49
-36.81
-57.75
-80.46
-103.47
-125.45
-145.74
-164.66
-183.33
-203.18
-225.58
-251.60
-282.11
-317.28
-355.78
-393.94
-425.65
-443.69
-442.35
-420.00
-380.25
-330.82
-280.43
-235.56
-198.63
-168.55
-142.88
-120.06
-100.33
-85.05
-75.15
-69.98
-67.36
-64.71
-60.31
-53.99
-46.87
-40.51
-35.86
-32.74
-29.99
-26.05
-19.70
-10.60
0.62
12.76
24.62
35.69
46.28
57.22
69.12
81.69
93.46
101.98
104.79
100.26
88.23
69.97
47.55
23.09
-1.71
-25.63
-47.73
-67.06
-82.77
-94.33
-102.02
-106.88
-110.46
-114.17
-118.79
-124.31
-130.07
-135.36
-139.75
-143.32
-146.50
-149.76
-153.28
-156.83
-159.94
-162.00
-162.60
-161.53
-158.74
-154.25
-148.05
-140.11
-130.55
-119.75
-108.38
-97.40
-87.84
-80.69
-76.62
-75.90
-78.21
-82.64
-87.72
-91.64
-92.74
-89.91
-83.00
-72.93
-61.33
-49.91
-39.87
-31.49
-24.23
-17.21
-9.74
-1.73
6.30
13.56
19.40
23.66
26.74
29.42
32.58
36.95
43.00
50.96
61.05
73.53
88.67
106.42
125.99
145.55
162.44
173.88
177.98
174.44
164.61
150.74
134.78
117.39
97.73
74.19
45.50
11.81
-24.96
-61.57
-94.40
-120.50
-138.27
-147.73
-150.42
-149.07
-147.28
-148.89
-157.37
-174.96
-201.93
-236.15
-273.30
-308.13
-336.25
-355.93
-368.74
-378.70
-390.11
-405.19
-422.70
-438.50
-447.51
-446.16
-433.84
-412.82
-386.72
-358.80
-330.92
-303.63
-277.11
-251.89
-229.11
-209.87
-194.51
-182.11
-170.70
-158.02
-142.44
-123.64
-102.65
-81.23
-61.03
-42.73
-25.79
-8.64
10.49
32.77
58.27
85.95
114.19
141.51
167.15
191.30
214.93
239.38
266.02
295.78
328.79
363.95
398.76
429.58
452.49
464.53
464.75
454.58
437.17
416.22
394.62
373.80
353.90
334.52
315.51
297.26
280.54
265.95
253.56
242.82
232.92
223.22
213.57
204.51
197.05
192.25
190.83
192.80
197.40
203.35
209.30
214.37
218.45
222.29
227.15
234.26
244.27
256.95
271.12
284.87
295.86
301.75
300.62
291.32
273.76
248.79
217.92
182.72
144.47
104.08
62.28
20.05
-21.45
-60.96
-97.74
-132.06
-165.20
-199.25
-236.66
-279.88
-330.71
-389.30
-453.01
-515.76
-568.81
-603.02
-612.00
-594.48
-554.80
-501.01
-441.58
-382.46
-325.93
-271.44
-217.71
-164.45
-112.89
-65.07
-22.68
13.72
44.48
70.20
91.16
107.21
118.03
123.98
126.42
127.57
129.75
134.39
141.31
148.69
153.77
154.04
148.32
137.20
122.67
107.29
93.31
82.03
73.75
68.09
64.38
62.03
60.65
59.95
59.50
58.36
55.04
47.76
35.14
16.98
-5.17
-28.21
-48.27
-61.83
-66.79
-62.82
-51.22
-34.29
-14.70
5.01
22.79
37.22
47.64
54.05
56.98
57.04
54.72
50.25
43.86
35.99
27.34
18.76
10.93
4.23
-1.21
-5.23
-7.44
-7.28
-4.39
0.96
7.63
13.80
17.66
18.13
15.33
10.56
5.75
2.68
2.23
4.19
7.43
10.38
11.75
10.90
8.01
3.81
-0.80
-5.17
-9.05
-12.56
-15.89
-19.05
-21.71
-23.33
-23.32
-21.41
-17.77
-12.99
-7.95
-3.52
-0.35
1.26
1.40
0.39
-1.36
-3.39
-5.33
-6.81
-7.61
-7.60
-6.90
-5.74
-4.44
-3.24
-2.19
-1.09
0.35
2.38
5.01
7.93
10.63
12.63
13.74
14.18
14.46
15.13
16.49
18.49
20.66
22.42
23.30
23.16
22.17
20.71
19.19
17.92
17.01
16.39
15.86
15.18
14.18
12.82
11.20
9.51
7.93
6.56
5.33
4.11
2.75
1.19
-0.51
-2.26
-4.11
-6.29
-9.20
-13.16
-18.19
-23.93
-29.68
-34.69
-38.40
-40.59
-41.32
-40.70
-38.74
-35.42
-30.81
-25.27
-19.48
-14.20
-10.01
-7.16
-5.51
-4.79
-4.78
-5.41
-6.65
-8.31
-9.85
-10.41
-9.01
-4.88
2.14
11.53
22.09
32.37
41.02
47.17
50.59
51.52
50.46
47.93
44.35
40.19
36.13
33.14
32.33
34.57
40.20
48.80
59.42
70.87
82.17
92.64
101.95
109.87
116.16
120.62
123.32
124.85
126.35
129.27
134.85
143.61
155.21
168.76
183.36
198.48
213.85
228.96
242.46
252.17
255.61
251.10
238.54
219.57
196.85
172.93
149.36
126.59
104.54
83.28
63.40
45.74
30.65
17.37
3.98
-12.29
-34.38
-64.58
-103.64
-149.88
-198.84
-243.77
-277.15
-293.01
-288.96
-267.18
-233.93
-197.59
-166.35
-146.07
-139.18
-144.41
-157.55
-172.67
-183.84
-186.83
-180.33
-166.19
-148.77
-133.36
-124.61
-125.25
-135.51
-153.08
-173.63
-191.97
-203.50
-205.70
-199.03
-186.53
-172.60
-161.28
-155.09
-154.73
-159.75
-169.35
-182.78
-199.14
-216.84
-233.35
-245.54
-250.52
-246.68
-234.23
-215.07
-191.91
-167.16
-142.16
-117.10
-91.60
-65.51
-39.39
-14.50
7.79
26.64
42.07
54.91
66.40
77.74
89.90
103.51
118.74
135.03
150.81
163.46
169.80
167.08
154.24
132.71
106.35
80.43
59.89
47.74
44.26
47.35
53.91
61.36
68.56
75.76
83.75
92.98
103.19
113.54
123.23
131.85
139.42
146.03
151.53
155.31
156.64
155.03
150.51
143.71
135.58
127.05
118.71
110.76
103.14
95.71
88.46
81.52
75.25
70.01
66.04
63.29
61.37
59.61
57.26
53.71
48.71
42.39
35.22
27.69
20.10
12.31
3.92
-5.52
-16.16
-27.64
-39.16
-49.70
-58.32
-64.33
-67.33
-67.13
-63.82
-57.86
-50.05
-41.31
-32.24
-22.72
-11.61
2.86
22.54
48.79
82.19
122.90
171.25
228.09
294.11
368.33
446.44
520.36
579.60
614.52
619.77
596.43
551.49
494.96
435.94
379.75
327.23
276.31
224.47
170.76
116.17
62.49
11.11
-38.03
-86.17
-134.87
-185.23
-237.73
-292.47
-349.75
-409.77
-471.53
-531.68
-584.14
-621.22
-636.11
-625.45
-590.89
-538.57
-476.91
-413.92
-355.29
-303.95
-260.81
-225.79
-198.48
-178.04
-163.08
-151.60
-141.53
-131.38
-120.64
-109.68
-99.39
-90.45
-82.94
-76.34
-69.79
-62.70
-55.08
-47.67
-41.55
-37.66
-36.20
-36.49
-37.27
-37.30
-35.99
-33.69
-31.50
-30.67
-32.00
-35.49
-40.39
-45.58
-50.03
-53.11
-54.79
-55.62
-56.80
-59.95
-66.75
-78.40
-95.00
-115.11
-135.87
-153.61
-164.87
-167.57
-161.62
-148.84
-132.21
-114.57
-97.57
-81.26
-64.51
-45.96
-24.87
-1.42
23.37
48.17
71.65
92.51
109.36
120.78
125.68
123.92
116.69
106.27
95.18
85.24
76.95
69.83
63.30
57.50
53.64
53.38
57.80
66.56
77.85
89.04
97.91
103.55
106.59
108.57
110.99
114.53
118.95
123.52
127.69
131.48
135.37
139.90
145.19
150.82
155.99
159.93
162.21
162.79
161.89
159.65
155.98
150.47
142.63
132.22
119.46
105.16
90.54
76.94
65.36
56.29
49.54
44.55
40.65
37.34
34.44
31.92
29.82
28.13
26.80
25.82
25.20
24.93
24.86
24.62
23.75
21.88
18.93
15.26
11.52
8.50
6.81
6.73
8.10
10.37
12.80
14.66
15.43
14.89
13.15
10.55
7.55
4.64
2.22
0.64
0.12
0.77
2.55
5.24
8.47
11.74
14.56
16.55
17.57
17.75
17.54
17.52
18.27
20.18
23.31
27.39
31.90
36.28
40.11
43.21
45.60
47.39
48.57
48.99
48.45
46.76
43.99
40.37
36.22
31.73
26.79
21.03
14.03
5.49
-4.53
-15.62
-27.17
-38.47
-48.89
-57.90
-65.10
-70.22
-73.24
-74.39
-74.08
-72.84
-71.10
-69.15
-67.12
-65.18
-63.60
-62.91
-63.74
-66.69
-72.12
-80.02
-89.96
-101.07
-112.07
-121.36
-127.22
-128.10
-123.01
-111.90
-95.82
-76.77
-57.27
-39.75
-25.92
-16.46
-10.99
-8.39
-7.32
-6.61
-5.55
-3.89
-1.77
0.47
2.50
4.07
5.13
5.82
6.47
7.50
9.20
11.69
14.81
18.27
21.72
24.91
27.72
30.16
32.30
34.17
35.81
37.19
38.33
39.24
39.90
40.26
40.25
39.83
39.05
38.07
37.05
36.15
35.34
34.49
33.36
31.77
29.71
27.36
25.07
23.12
21.65
20.58
19.66
18.57
17.15
15.44
13.79
12.68
12.63
13.95
16.66
20.41
24.55
28.30
30.92
31.91
31.12
28.77
25.41
21.76
18.55
16.37
15.54
16.07
17.66
19.82
21.90
23.26
23.39
22.01
19.15
15.12
10.47
5.85
1.84
-1.18
-3.15
-4.25
-4.84
-5.32
-6.00
-7.09
-8.63
-10.59
-12.86
-15.24
-17.49
-19.33
-20.48
-20.69
-19.90
-18.16
-15.72
-12.96
-10.31
-8.12
-6.58
-5.71
-5.32
-5.11
-4.76
-4.04
-2.90
-1.46
0.06
1.36
2.24
2.61
2.51
2.09
1.51
0.90
0.31
-0.28
-0.93
-1.70
-2.62
-3.71
-4.90
-6.13
-7.34
-8.45
-9.46
-10.38
-11.23
-12.01
-12.67
-13.10
-13.18
-12.80
-11.90
-10.55
-8.90
-7.16
-5.51
-4.01
-2.60
-1.15
0.40
2.03
3.57
4.80
5.57
5.84
5.67
5.22
4.60
3.94
3.31
2.77
2.35
2.01
1.66
1.17
0.44
-0.58
-1.89
-3.49
-5.37
-7.47
-9.71
-11.97
-14.17
-16.22
-18.15
-19.93
-21.50
-22.66
-23.12
-22.65
-21.20
-18.94
-16.20
-13.33
-10.57
-8.00
-5.56
-3.18
-0.83
1.40
3.42
5.17
6.69
8.07
9.40
10.70
11.90
12.83
13.34
13.40
13.10
12.66
12.26
11.99
11.75
11.37
10.71
9.82
8.97
8.50
8.66
9.47
10.65
11.78
12.48
12.59
12.29
12.05
12.44
13.99
16.93
21.20
26.42
32.12
38.00
44.17
51.23
60.18
72.01
87.19
105.29
124.85
143.73
159.77
171.58
178.99
183.14
186.02
189.71
195.58
203.79
213.15
221.60
226.83
227.00
221.32
210.39
196.08
180.94
167.23
155.87
145.87
134.37
117.69
92.78
58.64
17.00
-28.02
-71.23
-107.98
-135.36
-152.67
-161.00
-162.38
-159.07
-153.16
-146.61
-141.24
-138.57
-139.52
-143.99
-150.66
-157.35
-161.75
-162.20
-158.32
-150.98
-141.87
-132.79
-125.03
-119.06
-114.62
-111.09
-107.93
-104.90
-102.09
-99.79
-98.24
-97.40
-97.07
-96.90
-96.61
-96.08
-95.34
-94.45
-93.47
-92.36
-90.99
-89.23
-86.97
-84.13
-80.66
-76.54
-71.81
-66.60
-61.20
-55.95
-51.16
-46.95
-43.20
-39.55
-35.62
-31.19
-26.38
-21.61
-17.44
-14.34
-12.50
-11.82
-11.95
-12.48
-13.06
-13.51
-13.80
-14.05
-14.43
-15.18
-16.51
-18.57
-21.36
-24.69
-28.20
-31.41
-33.89
-35.38
-36.06
-36.49
-37.56
-40.16
-44.73
-50.91
-57.44
-62.43
-63.88
-60.46
-51.91
-39.26
-24.40
-9.53
3.59
13.98
21.56
26.85
30.64
33.62
36.27
38.87
41.55
44.31
47.03
49.41
50.99
51.27
49.92
46.99
42.94
38.53
34.54
31.50
29.54
28.34
27.33
25.91
23.74
20.74
17.13
13.25
9.39
5.73
2.30
-0.88
-3.74
-6.05
-7.49
-7.75
-6.67
-4.32
-1.01
2.77
6.51
9.77
12.27
13.97
14.94
15.37
15.48
15.47
15.50
15.70
16.15
16.89
17.85
18.87
19.74
20.27
20.32
19.80
18.73
17.14
15.10
12.71
10.08
7.28
4.38
1.43
-1.58
-4.59
-7.57
-10.43
-13.12
-15.60
-17.83
-19.67
-20.86
-21.08
-20.11
-17.96
-15.02
-11.94
-9.43
-7.95
-7.55
-7.85
-8.29
-8.39
-7.99
-7.23
-6.47
-5.99
-5.89
-6.06
-6.24
-6.14
-5.57
-4.48
-2.93
-1.10
0.72
2.23
3.19
3.48
3.18
2.55
1.88
1.42
1.25
1.22
1.05
0.41
-0.91
-2.92
-5.34
-7.72
-9.47
-10.15
-9.54
-7.69
-4.88
-1.48
2.17
5.84
9.37
12.60
15.30
17.17
17.92
17.41
15.74
13.31
10.66
8.32
6.66
5.77
5.55
5.77
6.22
6.78
7.44
8.19
8.97
9.56
9.67
8.96
7.17
4.20
0.17
-4.65
-9.86
-15.07
-20.01
-24.54
-28.69
-32.56
-36.24
-39.73
-42.89
-45.46
-47.04
-47.11
-45.05
-40.36
-32.96
-23.45
-13.13
-3.75
3.20
6.97
7.83
6.75
4.82
2.65
0.22
-2.79
-6.47
-10.32
-13.34
-14.45
-13.04
-9.26
-3.98
1.58
6.36
9.78
11.84
12.96
13.65
14.21
14.55
14.29
13.15
11.21
9.11
7.79
8.11
10.39
14.24
18.72
22.81
25.76
27.39
27.95
27.93
27.75
27.62
27.52
27.29
26.78
25.94
24.71
23.02
20.76
17.76
13.98
9.59
5.09
1.14
-1.62
-2.86
-2.74
-1.84
-1.04
-1.07
-2.29
-4.59
-7.47
-10.33
-12.71
-14.35
-15.18
-15.22
-14.51
-13.06
-10.96
-8.40
-5.61
-2.78
-0.02
2.65
5.13
7.29
8.85
9.64
9.66
9.17
8.59
8.22
8.10
7.89
7.05
5.07
1.80
-2.43
-6.90
-10.73
-13.14
-13.80
-12.85
-10.89
-8.74
-7.27
-7.13
-8.67
-11.78
-15.91
-20.15
-23.45
-24.94
-24.27
-21.71
-18.04
-14.20
-10.89
-8.34
-6.35
-4.51
-2.51
-0.32
1.85
3.70
5.04
5.83
6.18
6.27
6.27
6.32
6.46
6.70
6.95
7.14
7.17
6.98
6.57
5.96
5.21
4.33
3.39
2.44
1.54
0.71
-0.11
-1.02
-2.14
-3.46
-4.87
-6.06
-6.72
-6.59
-5.64
-3.95
-1.73
0.78
3.42
6.03
8.49
10.64
12.34
13.55
14.32
14.84
15.33
15.95
16.70
17.40
17.80
17.62
16.76
15.27
13.38
11.33
9.35
7.55
6.02
4.77
3.85
3.30
3.07
2.99
2.80
2.26
1.25
-0.09
-1.39
-2.20
-2.19
-1.28
0.38
2.51
4.88
7.42
10.19
13.23
16.46
19.60
22.27
24.13
25.08
25.28
25.11
24.96
25.09
25.46
25.78
25.63
24.72
22.97
20.64
18.11
15.85
14.18
13.23
12.93
13.10
13.53
14.01
14.39
14.59
14.60
14.53
14.54
14.84
15.61
16.94
18.74
20.70
22.37
23.28
23.16
22.09
20.56
19.32
19.12
20.37
23.01
26.61
30.70
35.11
40.13
46.46
54.83
65.60
78.36
91.90
104.41
113.90
118.66
117.57
110.21
96.79
78.22
56.14
32.94
11.55
-5.12
-14.80
-16.56
-10.81
0.94
16.82
35.29
55.64
78.02
103.09
131.45
162.96
196.35
228.98
257.39
278.08
288.59
288.16
277.86
260.02
237.45
212.84
188.64
167.14
150.50
140.39
137.45
140.79
148.01
155.85
161.10
161.54
156.30
145.73
130.85
112.82
92.58
70.90
48.38
25.63
3.28
-18.28
-38.97
-59.15
-79.64
-101.57
-126.13
-154.08
-185.00
-216.87
-246.05
-268.09
-279.15
-277.46
-263.94
-241.81
-215.23
-187.71
-161.14
-135.85
-111.40
-87.50
-64.35
-42.41
-21.73
-1.64
19.12
41.55
65.48
89.19
109.45
122.43
124.85
115.05
93.63
63.32
28.35
-6.53
-37.01
-60.00
-73.93
-78.93
-76.69
-70.08
-62.65
-57.81
-58.18
-65.05
-78.40
-97.21
-120.02
-145.37
-171.85
-198.00
-222.07
-242.17
-256.66
-264.84
-267.35
-266.17
-264.04
-263.55
-266.27
-272.27
-280.19
-287.80
-292.80
-293.41
-288.69
-278.55
-263.35
-243.75
-220.50
-194.57
-167.21
-140.01
-114.63
-92.51
-74.56
-60.97
-51.30
-44.66
-39.99
-36.16
-32.18
-27.30
-21.14
-13.88
-6.10
1.29
7.52
12.25
15.66
18.35
20.96
23.80
26.71
29.16
30.56
30.53
29.10
26.60
23.56
20.45
17.62
15.30
13.62
12.63
12.28
12.44
12.90
13.49
14.06
14.50
14.65
14.31
13.23
11.21
8.22
4.41
0.13
-4.24
-8.40
-12.22
-15.70
-18.91
-21.92
-24.67
-27.05
-28.91
-30.10
-30.48
-29.92
-28.28
-25.44
-21.43
-16.45
-10.96
-5.65
-1.22
1.77
3.13
3.02
1.91
0.33
-1.36
-3.00
-4.65
-6.34
-7.89
-8.86
-8.64
-6.73
-2.95
2.38
8.56
14.76
20.28
24.79
28.32
31.15
33.49
35.43
36.81
37.42
37.08
35.81
33.78
31.15
27.92
23.75
18.06
10.15
-0.57
-14.25
-30.50
-48.31
-66.17
-82.39
-95.42
-104.38
-109.23
-110.89
-111.01
-111.54
-114.31
-120.60
-130.90
-144.73
-160.64
-176.38
-189.37
-197.47
-199.71
-196.67
-190.13
-182.21
-174.18
-165.95
-156.13
-142.99
-125.45
-103.63
-78.63
-51.77
-23.95
4.43
33.00
60.75
85.83
106.15
120.27
128.18
131.28
131.77
131.54
131.48
131.43
130.71
128.86
126.11
123.36
121.83
122.61
126.41
133.60
144.37
158.86
177.07
198.82
223.34
249.18
274.15
295.70
311.29
319.00
317.93
308.45
292.17
271.73
250.41
231.33
216.69
206.98
200.81
195.41
187.59
174.98
156.63
133.17
106.26
77.88
49.72
22.90
-1.94
-24.52
-44.64
-61.99
-75.90
-85.40
-89.40
-87.33
-79.73
-68.67
-57.38
-49.32
-47.00
-51.10
-60.42
-72.44
-84.42
-94.40
-101.67
-106.55
-109.67
-111.20
-110.48
-106.22
-97.28
-83.42
-65.74
-46.48
-28.25
-13.04
-1.78
5.75
10.20
12.18
11.95
9.68
5.98
2.19
0.17
1.54
6.85
15.08
24.00
30.96
33.95
32.26
26.60
18.63
10.21
2.76
-3.09
-7.40
-10.61
-13.18
-15.31
-16.89
-17.72
-17.72
-17.07
-16.19
-15.52
-15.30
-15.42
-15.46
-14.99
-13.76
-11.93
-10.02
-8.58
-8.02
-8.34
-9.20
-10.09
-10.59
-10.54
-10.04
-9.37
-8.75
-8.31
-8.06
-7.97
-7.95
-7.82
-7.18
-5.42
-1.98
3.44
10.52
18.26
25.16
29.66
30.54
27.28
20.13
10.05
-1.61
-13.38
-23.91
-32.20
-37.72
-40.32
-40.12
-37.28
-31.77
-23.47
-12.33
1.24
16.04
30.26
41.79
49.03
51.41
49.65
45.40
40.59
36.69
34.25
32.94
31.88
30.17
27.20
22.85
17.44
11.60
5.99
1.27
-2.13
-3.99
-4.33
-3.37
-1.47
0.85
2.90
3.93
3.31
0.78
-3.32
-8.07
-12.27
-14.96
-15.79
-15.23
-14.29
-14.05
-15.14
-17.47
-20.36
-22.92
-24.41
-24.50
-23.22
-20.86
-17.75
-14.36
-11.24
-9.10
-8.73
-10.74
-15.32
-21.99
-29.69
-37.00
-42.54
-45.37
-45.18
-42.31
-37.62
-32.14
-26.83
-22.36
-19.06
-16.94
-15.81
-15.40
-15.35
-15.31
-14.91
-13.89
-12.13
-9.83
-7.59
-6.23
-6.57
-8.96
-13.03
-17.70
-21.57
-23.56
-23.46
-22.14
-21.24
-22.60
-27.56
-36.71
-49.79
-66.05
-84.57
-104.39
-124.54
-143.93
-161.37
-175.66
-185.73
-190.71
-189.96
-182.93
-169.15
-148.34
-120.82
-87.86
-51.91
-16.33
15.35
40.23
56.86
65.38
67.16
64.13
58.14
50.58
42.41
34.35
27.15
21.61
18.52
18.50
21.77
28.21
37.34
48.42
60.56
72.90
84.70
95.39
104.52
111.64
116.36
118.48
118.15
116.01
113.09
110.45
108.74
107.95
107.39
106.05
102.95
97.44
89.19
78.19
64.68
49.36
33.54
19.06
8.04
2.14
2.06
7.22
15.99
26.26
36.04
43.87
48.90
50.82
49.72
46.09
40.75
34.85
29.56
25.76
23.78
23.34
23.75
24.27
24.53
24.66
25.21
26.79
29.67
33.52
37.54
40.81
42.70
43.11
42.44
41.19
39.62
37.56
34.41
29.41
21.80
11.04
-3.05
-20.05
-38.61
-56.39
-70.46
-78.09
-77.80
-70.02
-57.03
-42.07
-28.21
-17.34
-9.92
-5.36
-2.75
-1.32
-0.54
0.03
0.93
2.73
5.72
9.70
13.97
17.65
20.15
21.34
21.65
21.78
22.27
23.36
24.83
26.21
26.95
26.52
24.51
20.68
14.98
7.63
-0.78
-9.34
-16.90
-22.33
-24.90
-24.45
-21.41
-16.55
-10.48
-3.24
6.05
19.14
38.22
65.12
100.09
141.02
183.21
220.35
246.35
257.29
252.82
235.91
211.41
183.94
156.18
128.40
99.02
65.77
26.50
-20.28
-75.00
-136.20
-199.88
-259.53
-307.37
-336.89
-345.21
-334.26
-309.92
-279.45
-248.77
-220.79
-195.56
-171.66
-147.82
-123.82
-100.21
-77.62
-56.10
-35.06
-13.77
8.18
30.55
52.42
72.57
90.00
104.30
115.76
125.13
133.14
140.08
145.62
149.01
149.63
147.39
142.99
137.60
132.44
128.25
125.07
122.22
118.63
113.20
105.18
94.27
80.73
65.18
48.40
31.19
14.20
-1.96
-16.64
-29.39
-40.10
-49.45
-58.80
-69.62
-82.69
-97.43
-111.90
-123.40
-129.56
-129.09
-121.83
-108.54
-90.37
-68.71
-45.11
-21.38
0.67
19.65
35.01
47.15
57.06
65.93
74.70
84.02
94.46
106.77
121.75
140.18
162.27
187.40
214.07
240.16
263.44
282.09
294.97
301.67
302.41
297.68
287.99
273.98
256.53
236.76
216.01
195.40
175.28
155.07
133.35
108.45
79.24
45.69
8.99
-28.73
-65.26
-98.97
-129.38
-157.20
-184.09
-212.21
-243.68
-279.69
-319.48
-359.68
-394.38
-416.54
-420.07
-401.91
-362.88
-307.07
-240.01
-166.97
-91.88
-17.58
53.50
118.69
175.19
220.72
254.24
276.07
287.59
290.82
288.28
283.20
279.36
280.33
288.07
301.82
317.91
331.04
336.36
331.42
316.87
295.72
271.64
247.27
223.66
200.66
177.93
155.78
135.08
116.73
100.99
87.11
73.69
59.36
43.36
25.86
7.82
-9.52
-25.30
-39.38
-52.35
-65.06
-78.11
-91.45
-104.48
-116.50
-127.14
-136.74
-146.17
-156.50
-168.61
-182.97
-199.70
-218.72
-239.85
-262.82
-287.17
-312.35
-337.84
-363.46
-389.60
-417.35
-448.26
-483.85
-524.98
-571.07
-619.71
-666.88
-707.68
-737.39
-752.56
-751.61
-734.82
-703.92
-661.48
-610.41
-553.78
-494.66
-435.98
-380.26
-329.06
-282.66
-239.94
-198.82
-156.97
-112.71
-65.70
-17.00
31.40
77.53
120.35
160.25
199.02
239.33
284.18
335.93
395.18
459.71
523.81
579.09
616.44
628.85
613.69
573.34
514.06
443.70
369.57
297.05
229.51
168.70
115.31
69.27
29.96
-3.83
-33.82
-62.24
-91.74
-125.09
-164.37
-209.70
-258.51
-305.83
-345.89
-374.36
-390.04
-395.14
-393.98
-390.81
-388.04
-385.65
-381.83
-374.36
-361.75
-343.81
-321.23
-294.84
-265.00
-231.41
-193.64
-151.83
-107.12
-61.61
-17.62
23.16
60.44
95.41
130.39
167.81
209.33
255.03
303.00
349.83
391.56
424.78
447.53
459.55
462.06
457.13
447.05
433.81
418.74
402.36
384.61
365.21
344.12
321.88
299.45
277.67
256.71
235.78
213.53
188.77
161.29
132.27
103.88
78.50
57.92
42.98
33.62
28.85
27.29
27.49
28.07
28.42
28.76
30.01
33.35
39.69
49.53
62.84
79.01
96.80
114.13
127.94
134.76
131.74
117.78
94.28
64.83
34.06
6.00
-17.06
-34.67
-47.77
-57.85
-66.35
-74.60
-83.70
-94.44
-106.82
-119.62
-130.50
-136.42
-134.90
-125.04
-108.29
-88.35
-70.43
-59.86
-60.50
-73.21
-95.34
-121.39
-144.83
-160.46
-166.36
-164.28
-158.68
-154.53
-155.48
-162.98
-176.71
-195.50
-217.90
-242.05
-264.78
-281.59
-287.22
-277.39
-250.49
-208.21
-154.45
-93.30
-27.49
41.66
112.36
180.39
238.40
277.48
290.45
275.05
235.01
178.40
114.25
49.41
-12.66
-70.81
-124.30
-171.47
-210.24
-239.74
-261.59
-279.30
-296.07
-312.35
-324.81
-327.74
-315.74
-286.55
-241.79
-185.69
-123.02
-57.82
6.13
64.01
109.30
134.83
135.27
109.58
61.37
-2.95
-77.08
-156.51
-238.08
-317.83
-389.28
-443.85
-473.68
-475.17
-451.02
-409.40
-360.55
-312.93
-270.89
-234.64
-202.12
-171.34
-141.64
-113.69
-88.57
-66.88
-48.38
-32.26
-17.57
-3.46
10.53
24.67
39.15
54.07
69.42
85.14
101.07
117.10
133.25
149.70
166.85
185.31
206.06
230.15
258.19
289.60
322.12
352.05
375.33
389.11
392.89
388.49
378.89
366.44
351.48
332.36
306.61
272.97
232.78
190.24
151.20
121.13
103.33
97.96
102.38
112.33
123.40
132.31
137.35
138.19
135.34
129.59
121.71
112.42
102.39
92.27
82.48
73.20
64.31
55.61
47.06
38.88
31.54
25.51
21.06
18.07
16.05
14.25
11.84
8.17
2.91
-3.91
-11.80
-19.84
-26.85
-31.64
-33.37
-31.94
-28.14
-23.44
-19.57
-17.91
-19.03
-22.47
-27.04
-31.22
-33.76
-34.05
-32.20
-28.83
-24.64
-20.10
-15.28
-9.95
-3.97
2.49
8.76
13.92
17.17
18.22
17.46
15.84
14.48
14.32
15.85
19.10
23.82
29.65
36.24
43.27
50.38
57.19
63.43
69.06
74.40
79.91
85.62
90.61
92.85
89.82
79.60
62.10
39.47
15.64
-5.07
-19.47
-26.46
-27.04
-23.47
-18.20
-13.08
-9.14
-6.83
-6.30
-7.49
-10.12
-13.52
-16.78
-18.98
-19.49
-18.12
-15.05
-10.71
-5.51
0.22
6.18
11.90
16.73
19.75
20.04
16.91
10.23
0.63
-10.51
-21.37
-30.05
-35.14
-36.00
-32.98
-27.14
-19.92
-12.69
-6.41
-1.60
1.57
3.22
3.55
2.92
1.78
0.63
-0.08
-0.10
0.51
1.41
2.08
2.16
1.61
0.89
0.82
2.22
5.50
10.32
15.62
19.85
21.50
19.62
14.09
5.61
-4.62
-15.33
-25.41
-34.12
-41.01
-45.79
-48.29
-48.43
-46.37
-42.60
-38.05
-33.94
-31.52
-31.76
-34.97
-40.73
-48.01
-55.47
-61.85
-66.20
-67.94
-66.84
-62.83
-56.13
-47.09
-36.39
-24.84
-13.28
-2.25
8.06
17.72
26.80
35.07
41.91
46.32
47.36
44.46
37.78
28.13
16.85
5.32
-5.38
-14.63
-22.31
-28.54
-33.44
-36.89
-38.41
-37.28
-32.87
-24.99
-14.20
-1.86
10.12
19.71
25.36
26.39
23.11
16.70
8.83
1.22
-4.76
-8.33
-9.40
-8.47
-6.36
-3.86
-1.47
0.82
3.40
6.77
11.27
16.77
22.64
27.93
31.68
33.16
32.09
28.64
23.44
17.45
11.81
7.64
5.71
6.27
8.93
12.80
16.82
20.08
22.11
22.85
22.59
21.72
20.61
19.49
18.47
17.53
16.59
15.63
14.72
14.04
13.88
14.45
15.76
17.63
19.71
21.75
23.68
25.66
28.00
30.96
34.59
38.69
42.88
46.70
49.73
51.71
52.55
52.32
51.17
49.31
46.90
44.04
40.75
37.01
32.77
27.95
22.47
16.33
9.67
2.85
-3.65
-9.35
-13.97
-17.61
-20.76
-24.08
-28.18
-33.37
-39.54
-46.28
-53.07
-59.45
-65.12
-69.87
-73.50
-75.67
-75.92
-73.62
-68.15
-59.00
-46.03
-29.56
-10.52
9.51
28.53
44.47
55.64
61.14
61.05
56.41
48.88
40.45
32.97
27.86
25.91
27.14
30.79
35.46
39.42
41.12
39.61
34.81
27.53
19.20
11.42
5.55
2.42
2.26
4.61
8.55
12.94
16.64
18.85
19.26
18.04
15.78
13.25
11.14
9.90
9.62
10.12
10.99
11.75
12.03
11.63
10.58
9.02
7.16
5.10
2.89
0.56
-1.82
-4.02
-5.82
-6.98
-7.45
-7.33
-6.90
-6.53
-6.57
-7.30
-8.99
-11.85
-16.01
-21.53
-28.14
-35.23
-41.84
-46.87
-49.38
-48.89
-45.55
-40.05
-33.46
-26.90
-21.36
-17.50
-15.71
-16.00
-18.15
-21.63
-25.75
-29.70
-32.75
-34.28
-33.92
-31.56
-27.34
-21.65
-15.14
-8.68
-3.32
-0.14
-0.14
-3.95
-11.72
-22.82
-35.88
-48.98
-60.10
-67.60
-70.77
-69.92
-66.20
-61.07
-55.69
-50.56
-45.42
-39.55
-32.15
-22.79
-11.55
0.95
13.75
25.74
35.97
43.79
49.03
51.88
52.87
52.67
51.90
51.00
50.20
49.51
48.82
47.95
46.73
45.09
42.99
40.52
37.83
35.09
32.51
30.22
28.23
26.42
24.55
22.31
19.48
15.97
11.90
7.63
3.60
0.23
-2.14
-3.44
-3.79
-3.53
-3.04
-2.58
-2.16
-1.47
-0.01
2.62
6.48
11.06
15.44
18.56
19.67
18.65
16.04
12.83
10.08
8.60
8.75
10.56
13.72
17.86
22.55
27.48
32.45
37.48
42.71
48.39
54.70
61.75
69.64
78.45
88.32
99.38
111.66
125.12
139.68
155.27
171.73
188.52
204.44
217.61
225.85
227.34
221.33
208.34
189.76
167.06
141.08
112.13
80.64
48.05
17.14
-8.58
-26.20
-34.76
-35.64
-31.94
-27.01
-23.06
-20.61
-18.91
-16.92
-14.15
-10.94
-8.12
-6.40
-6.20
-7.78
-11.61
-18.53
-29.53
-45.22
-65.29
-88.36
-112.27
-134.69
-153.75
-168.34
-178.18
-183.58
-185.15
-183.62
-179.69
-173.93
-166.83
-158.74
-149.93
-140.67
-131.31
-122.30
-114.05
-106.81
-100.43
-94.42
-88.00
-80.46
-71.35
-60.52
-48.06
-34.25
-19.53
-4.72
8.90
19.61
25.65
25.74
19.51
7.67
-8.32
-26.74
-46.07
-65.21
-83.50
-100.58
-116.43
-131.31
-145.71
-160.08
-174.53
-188.50
-200.84
-210.05
-214.71
-213.89
-207.27
-195.11
-178.06
-157.01
-132.95
-106.75
-78.99
-49.89
-19.46
12.03
43.46
72.73
97.05
113.89
122.00
121.99
116.13
107.49
98.76
91.55
86.24
82.44
79.55
77.21
75.32
73.81
72.45
70.81
68.42
65.04
60.74
55.90
51.04
46.56
42.64
39.21
36.15
33.52
31.61
30.89
31.80
34.45
38.44
42.99
47.15
50.18
51.73
51.89
51.04
49.56
47.70
45.51
42.96
40.05
36.78
33.18
29.20
24.81
20.06
15.21
10.78
7.36
5.46
5.19
6.28
8.20
10.42
12.62
14.78
17.07
19.61
22.37
25.09
27.49
29.34
30.59
31.34
31.67
31.56
30.85
29.36
27.02
23.94
20.34
16.47
12.47
8.38
4.22
0.12
-3.71
-6.99
-9.52
-11.28
-12.45
-13.33
-14.23
-15.40
-16.96
-18.86
-20.91
-22.87
-24.39
-25.20
-25.09
-24.03
-22.07
-19.39
-16.16
-12.57
-8.79
-5.00
-1.39
1.88
4.72
7.12
9.16
10.96
12.63
14.22
15.67
16.82
17.46
17.42
16.59
14.99
12.72
9.91
6.61
2.80
-1.62
-6.73
-12.44
-18.39
-23.97
-28.41
-30.96
-31.10
-28.62
-23.73
-17.01
-9.26
-1.40
5.67
11.28
15.03
16.90
17.11
16.07
14.20
11.93
9.65
7.76
6.63
6.59
7.73
9.93
12.84
16.06
19.33
22.53
25.72
28.90
31.93
34.45
36.05
36.43
35.55
33.64
31.07
28.22
25.32
22.43
19.52
16.58
13.71
11.09
8.86
7.05
5.51
3.98
2.21
0.13
-2.10
-4.11
-5.54
-6.18
-6.06
-5.44
-4.64
-3.93
-3.46
-3.32
-3.58
-4.36
-5.74
-7.71
-10.04
-12.37
-14.35
-15.82
-16.89
-17.91
-19.27
-21.23
-23.78
-26.56
-28.99
-30.41
-30.26
-28.31
-24.73
-20.11
-15.25
-10.95
-7.71
-5.62
-4.34
-3.26
-1.62
1.28
5.87
12.25
20.11
28.88
37.83
46.44
54.51
62.21
69.85
77.60
85.15
91.73
96.26
97.88
96.40
92.52
87.62
83.29
80.73
80.38
81.98
84.70
87.46
88.96
87.65
81.70
69.38
49.75
23.33
-7.51
-38.98
-66.86
-87.75
-100.08
-104.26
-102.18
-96.26
-88.64
-80.71
-73.10
-65.91
-58.91
-51.61
-43.24
-32.84
-19.53
-2.79
17.19
39.56
63.08
86.49
108.84
129.42
147.58
162.35
172.37
176.12
172.40
160.79
141.90
117.09
87.91
55.59
20.90
-15.50
-52.58
-88.59
-121.47
-149.68
-172.98
-192.33
-208.88
-222.53
-231.14
-231.09
-219.23
-195.00
-161.45
-124.37
-90.00
-62.58
-43.18
-30.35
-21.92
-16.70
-14.96
-17.72
-25.47
-37.19
-50.51
-62.75
-72.05
-78.03
-81.60
-84.11
-86.43
-88.46
-89.23
-87.55
-82.65
-74.46
-63.59
-50.95
-37.32
-23.19
-8.83
5.47
19.24
31.76
42.30
50.36
55.82
58.95
60.29
60.49
60.21
60.06
60.60
62.29
65.36
69.65
74.64
79.57
83.71
86.72
88.75
90.35
92.04
93.99
95.86
97.03
96.92
95.33
92.52
88.93
84.90
80.54
75.73
70.34
64.37
57.89
50.99
43.60
35.56
26.81
17.52
8.10
-0.95
-9.27
-16.77
-23.69
-30.33
-36.92
-43.48
-49.84
-55.88
-61.56
-66.96
-72.14
-76.85
-80.47
-82.06
-80.72
-75.98
-68.10
-58.14
-47.62
-38.00
-30.28
-24.66
-20.72
-17.64
-14.59
-10.91
-6.25
-0.47
6.38
14.08
22.13
29.78
36.13
40.29
41.76
40.49
36.96
32.02
26.54
21.19
16.24
11.63
7.17
2.75
-1.52
-5.25
-8.01
-9.53
-9.84
-9.31
-8.47
-7.82
-7.67
-8.05
-8.79
-9.64
-10.34
-10.78
-10.91
-10.78
-10.46
-10.10
-9.82
-9.60
-9.23
-8.20
-5.78
-1.35
5.35
13.92
23.31
32.04
38.54
41.55
40.38
35.01
26.08
14.78
2.73
-8.29
-16.72
-21.57
-22.71
-20.94
-17.76
-14.90
-13.86
-15.56
-20.19
-27.32
-36.25
-46.25
-56.87
-67.99
-79.71
-92.19
-105.45
-119.27
-133.16
-146.41
-158.26
-167.97
-174.97
-178.79
-179.02
-175.20
-166.75
-153.18
-134.31
-110.63
-83.38
-54.51
-26.23
-0.52
21.40
39.19
53.35
64.77
74.41
82.95
90.72
97.76
104.08
109.78
115.11
120.45
126.05
131.93
137.80
143.13
147.33
149.82
150.06
147.48
141.47
131.55
117.56
99.90
79.58
57.95
36.26
15.28
-4.84
-24.22
-42.91
-60.44
-75.76
-87.62
-95.03
-97.69
-96.10
-91.27
-84.37
-76.37
-67.91
-59.41
-51.26
-43.90
-37.80
-33.34
-30.69
-29.73
-30.09
-31.27
-32.79
-34.21
-35.16
-35.26
-34.15
-31.41
-26.75
-20.12
-11.81
-2.49
6.94
15.61
22.88
28.55
32.80
36.00
38.51
40.53
42.06
43.00
43.26
42.93
42.24
41.59
41.33
41.60
42.24
42.82
42.79
41.65
39.12
35.11
29.68
22.93
14.97
6.06
-3.38
-12.69
-21.11
-27.98
-32.97
-36.16
-38.00
-39.11
-40.04
-41.03
-42.06
-42.86
-43.17
-42.88
-42.15
-41.29
-40.68
-40.55
-40.96
-41.76
-42.71
-43.51
-43.85
-43.29
-41.33
-37.52
-31.68
-24.20
-16.03
-8.57
-3.17
-0.77
-1.52
-4.85
-9.67
-14.82
-19.30
-22.47
-23.97
-23.73
-21.87
-18.73
-14.83
-10.80
-7.22
-4.47
-2.67
-1.67
-1.14
-0.68
0.07
1.33
3.12
5.22
7.14
8.30
8.14
6.35
3.04
-1.34
-6.09
-10.59
-14.41
-17.45
-19.73
-21.26
-21.83
-21.12
-18.88
-15.22
-10.69
-6.17
-2.57
-0.48
0.00
-0.74
-2.03
-3.13
-3.45
-2.65
-0.67
2.29
5.84
9.50
12.82
15.47
17.38
18.71
19.73
20.74
21.82
22.83
23.44
23.24
22.02
19.85
17.10
14.34
12.10
10.69
10.04
9.74
9.12
7.52
4.59
0.37
-4.57
-9.38
-13.15
-15.16
-15.01
-12.59
-8.02
-1.65
6.05
14.40
22.63
29.98
35.86
39.97
42.30
43.07
42.59
41.18
39.22
37.08
35.08
33.49
32.38
31.69
31.29
31.03
30.79
30.47
29.96
29.12
27.95
26.62
25.60
25.57
27.20
30.89
36.46
43.09
49.47
54.18
56.16
55.06
51.40
46.29
41.01
36.49
32.91
29.74
26.06
21.08
14.56
6.97
-0.70
-7.25
-11.72
-13.63
-13.15
-11.27
-9.58
-9.86
-13.38
-20.21
-29.03
-37.49
-43.09
-44.25
-40.95
-34.84
-28.42
-24.00
-22.63
-23.65
-25.04
-24.29
-19.49
-10.17
2.58
16.55
29.31
39.00
44.82
46.88
45.74
41.95
35.92
28.06
19.04
9.85
1.57
-4.92
-9.38
-12.20
-14.24
-16.43
-19.38
-23.17
-27.45
-31.68
-35.35
-38.23
-40.30
-41.70
-42.53
-42.77
-42.32
-41.07
-38.99
-36.20
-33.04
-29.92
-27.28
-25.32
-23.94
-22.65
-20.72
-17.42
-12.31
-5.46
2.52
10.73
18.31
24.88
30.78
36.97
44.68
54.81
67.44
81.76
96.32
109.62
120.62
129.01
135.07
139.48
143.00
146.42
150.44
155.56
161.68
167.82
171.85
171.29
164.26
150.56
131.95
111.06
89.30
64.85
32.61
-13.45
-76.34
-152.61
-231.71
-299.06
-341.31
-351.03
-328.49
-280.20
-215.70
-145.04
-77.93
-23.84
8.80
15.16
-2.69
-34.46
-64.22
-76.35
-62.20
-23.61
28.51
79.67
117.84
137.40
139.21
127.86
108.49
84.93
59.68
34.86
12.89
-3.45
-12.03
-12.30
-5.70
4.47
14.05
19.34
18.41
11.73
1.65
-8.91
-17.99
-25.54
-33.31
-43.65
-57.95
-75.39
-93.00
-106.65
-112.73
-109.73
-99.02
-84.56
-71.40
-63.71
-63.00
-67.27
-71.83
-71.44
-62.85
-46.48
-26.26
-7.67
4.82
9.59
7.88
2.44
-4.40
-11.73
-19.84
-28.98
-38.40
-46.17
-50.07
-48.83
-42.74
-33.52
-23.47
-14.38
-7.11
-1.72
2.10
4.66
6.05
6.34
5.67
4.28
2.40
0.35
-1.56
-2.86
-2.81
-0.68
3.79
9.81
15.55
19.01
19.22
17.28
16.32
20.25
31.89
51.54
76.65
102.99
126.41
144.20
155.60
161.13
161.79
158.45
151.93
143.41
134.53
127.01
121.76
118.25
114.36
107.03
93.31
71.76
43.08
10.11
-23.09
-52.62
-75.99
-92.67
-103.80
-111.22
-116.33
-119.54
-120.27
-117.64
-111.36
-102.30
-92.38
-83.87
-78.40
-76.10
-75.38
-73.51
-67.60
-55.84
-38.16
-16.20
7.35
29.76
49.09
64.54
76.41
85.84
94.58
104.73
118.32
136.53
158.72
181.96
201.50
212.38
211.46
198.98
178.54
155.59
135.04
119.46
108.55
100.18
92.00
82.72
72.33
61.33
49.78
36.86
21.44
2.98
-17.73
-38.73
-57.98
-74.59
-89.64
-105.98
-126.94
-154.83
-189.79
-229.36
-268.98
-302.86
-325.12
-330.91
-317.56
-285.60
-239.24
-185.88
-134.35
-92.50
-65.08
-52.72
-52.56
-59.85
-69.90
-79.19
-85.76
-88.74
-87.91
-83.53
-76.39
-67.93
-59.99
-54.34
-52.11
-53.34
-57.01
-61.40
-64.57
-64.93
-61.79
-55.53
-47.70
-40.64
-36.81
-37.68
-42.98
-50.32
-55.78
-55.43
-46.70
-29.40
-5.59
21.40
48.29
72.71
93.41
109.86
121.75
129.09
132.47
133.43
134.22
136.98
142.69
150.59
158.43
163.42
163.49
157.98
147.72
134.37
119.69
104.97
90.94
78.08
66.75
57.48
50.53
45.72
42.33
39.31
35.70
31.14
25.94
20.86
16.78
14.12
12.78
12.20
11.69
10.75
9.27
7.57
6.23
5.91
7.10
9.97
14.29
19.52
24.96
30.06
34.56
38.47
41.95
45.07
47.76
49.74
50.49
49.18
44.60
35.28
19.88
-2.19
-30.24
-62.17
-94.92
-125.36
-151.15
-171.28
-185.99
-196.28
-203.19
-207.29
-208.51
-206.37
-200.51
-191.17
-179.29
-166.30
-153.53
-141.56
-129.95
-117.63
-103.62
-87.72
-70.86
-54.62
-40.45
-28.85
-19.29
-10.58
-1.66
7.79
17.30
25.98
33.14
38.75
43.50
48.53
54.95
63.51
74.26
86.67
99.69
112.09
122.75
130.97
136.61
140.12
142.38
144.45
147.24
151.28
156.46
161.96
166.25
167.37
163.46
153.41
137.34
116.61
93.37
69.75
47.02
25.36
3.94
-18.60
-43.54
-71.73
-103.46
-138.44
-175.88
-214.64
-253.40
-290.69
-324.81
-353.60
-374.37
-384.32
-381.35
-365.03
-337.15
-301.40
-262.20
-223.17
-186.08
-150.68
-115.30
-77.82
-36.58
8.99
58.07
108.45
156.88
199.88
234.62
259.64
274.92
281.31
279.79
271.14
256.21
236.60
214.97
194.59
178.25
167.05
160.10
155.13
149.73
142.32
132.25
119.15
102.29
80.64
53.65
22.37
-10.05
-39.05
-60.18
-70.79
-70.85
-62.51
-48.85
-32.53
-15.18
2.46
19.77
35.81
49.46
60.05
68.03
75.10
83.56
95.28
110.83
129.32
148.95
168.14
186.46
205.02
225.96
251.41
282.14
316.81
351.91
382.78
405.04
415.99
415.36
405.05
388.18
367.78
345.99
323.80
301.38
278.73
256.03
233.64
211.87
190.66
169.61
148.26
126.45
104.56
83.34
63.59
45.71
29.51
14.31
-0.72
-16.14
-32.01
-47.95
-63.49
-78.43
-93.12
-108.32
-124.91
-143.43
-163.80
-185.43
-207.48
-229.36
-251.00
-272.87
-295.73
-320.39
-347.63
-378.01
-411.67
-447.77
-484.12
-517.19
-542.81
-557.51
-559.78
-550.54
-532.81
-510.46
-487.00
-464.88
-445.66
-430.57
-420.92
-417.98
-422.16
-432.21
-444.81
-455.26
-458.79
-452.15
-434.55
-407.69
-374.76
-339.01
-302.67
-266.49
-230.30
-193.85
-157.42
-121.95
-88.48
-57.48
-28.53
-0.32
29.05
61.56
98.50
139.72
182.76
222.70
252.96
267.11
261.02
234.35
190.73
136.48
78.68
23.51
-24.37
-61.72
-86.30
-96.83
-93.41
-77.93
-54.00
-25.97
2.39
29.04
54.09
79.24
106.70
137.70
171.65
206.00
237.07
261.37
276.81
283.39
282.84
277.72
270.23
261.57
251.96
241.18
229.15
216.32
203.46
191.41
180.71
171.56
163.92
157.67
152.56
148.23
144.19
139.82
134.57
128.12
120.53
112.18
103.76
96.12
90.19
86.82
86.62
89.79
95.96
104.27
113.62
123.10
132.42
141.98
152.71
165.53
180.77
197.89
215.62
232.36
246.68
257.59
264.46
266.69
263.56
254.19
237.89
214.59
185.12
151.17
114.94
78.59
43.73
11.16
-19.26
-48.33
-77.33
-107.82
-141.51
-180.01
-224.09
-272.71
-322.23
-366.51
-398.37
-411.94
-404.84
-379.25
-340.88
-296.79
-252.74
-211.79
-174.53
-140.47
-109.51
-82.59
-61.10
-45.84
-36.13
-29.85
-24.26
-17.17
-7.79
3.06
13.57
21.82
26.67
28.18
27.36
25.66
24.30
23.94
24.62
26.12
28.17
30.61
33.38
36.28
39.02
41.18
42.29
41.94
39.75
35.37
28.63
19.64
8.96
-2.48
-13.59
-23.48
-31.74
-38.52
-44.22
-49.16
-53.24
-55.94
-56.49
-54.32
-49.40
-42.35
-34.23
-26.21
-19.15
-13.40
-8.74
-4.67
-0.58
4.05
9.50
15.84
22.86
30.12
36.94
42.65
46.78
49.25
50.52
51.31
52.40
54.23
56.78
59.60
61.98
63.26
63.00
61.03
57.45
52.50
46.43
39.43
31.53
22.68
12.80
1.89
-9.89
-22.13
-34.31
-45.71
-55.61
-63.39
-68.70
-71.64
-72.75
-72.95
-73.24
-74.36
-76.58
-79.66
-83.06
-86.20
-88.72
-90.51
-91.55
-91.80
-91.03
-88.88
-85.01
-79.24
-71.68
-62.64
-52.62
-42.15
-31.77
-21.95
-12.99
-4.93
2.44
9.57
16.91
24.69
32.78
40.76
48.07
54.40
59.89
65.12
70.97
78.24
87.31
97.97
109.42
120.59
130.49
138.53
144.65
149.14
152.40
154.48
154.99
153.15
148.11
139.38
127.13
112.23
96.07
80.13
65.68
53.46
43.71
36.24
30.59
26.10
21.87
16.71
9.29
-1.42
-15.71
-32.77
-50.71
-67.16
-79.98
-88.03
-91.43
-91.33
-89.21
-86.24
-82.96
-79.33
-75.09
-70.23
-65.04
-60.07
-55.76
-52.25
-49.30
-46.52
-43.63
-40.69
-38.13
-36.52
-36.32
-37.64
-40.15
-43.15
-45.81
-47.32
-47.11
-44.92
-40.80
-35.20
-28.92
-23.14
-19.23
-18.44
-21.47
-28.16
-37.33
-47.15
-55.69
-61.46
-63.88
-63.27
-60.61
-57.05
-53.57
-50.74
-48.73
-47.29
-45.92
-43.92
-40.57
-35.37
-28.19
-19.39
-9.73
-0.19
8.25
14.86
19.25
21.46
22.07
22.18
23.22
26.76
34.09
45.86
62.05
82.11
105.30
131.04
158.90
188.28
217.89
245.46
267.91
282.24
286.54
280.91
267.57
250.23
232.85
218.61
209.23
204.92
204.77
207.09
209.68
210.09
205.86
194.99
176.36
149.91
116.47
77.38
34.31
-10.87
-55.84
-97.87
-134.02
-161.79
-179.85
-188.65
-190.48
-189.14
-189.01
-194.08
-206.74
-227.06
-252.67
-279.29
-302.02
-316.76
-321.36
-316.22
-304.13
-289.48
-277.12
-271.20
-274.09
-285.89
-304.52
-326.40
-347.57
-364.75
-375.98
-380.76
-379.58
-373.34
-362.85
-348.63
-330.95
-310.10
-286.57
-261.12
-234.57
-207.55
-180.14
-151.92
-122.19
-90.46
-56.69
-21.29
15.26
52.60
90.50
128.36
164.69
197.02
222.44
238.63
244.88
242.46
234.17
223.27
212.46
203.33
196.33
191.22
187.46
184.46
181.61
178.24
173.73
167.70
160.14
151.49
142.42
133.57
125.23
117.26
109.19
100.41
90.46
79.33
67.44
55.62
44.84
35.92
29.33
25.06
22.73
21.79
21.72
22.18
22.97
23.92
24.87
25.58
25.89
25.71
25.15
24.45
23.91
23.76
24.10
24.80
25.59
26.09
26.00
25.13
23.55
21.48
19.30
17.38
16.04
15.42
15.56
16.29
17.41
18.56
19.42
19.66
19.09
17.70
15.70
13.50
11.67
10.77
11.19
13.05
16.10
19.78
23.27
25.76
26.60
25.51
22.69
18.67
14.19
9.91
6.24
3.30
1.04
-0.63
-1.73
-2.17
-1.91
-1.01
0.33
1.81
3.13
4.12
4.71
4.92
4.77
4.28
3.47
2.40
1.11
-0.31
-1.75
-3.02
-3.92
-4.20
-3.71
-2.42
-0.55
1.55
3.51
4.99
5.84
6.09
5.88
5.43
4.95
4.58
4.40
4.40
4.49
4.50
4.32
3.92
3.36
2.83
2.62
2.98
4.08
5.84
7.89
9.60
10.28
9.42
6.91
3.15
-1.10
-4.96
-7.68
-8.85
-8.40
-6.50
-3.44
0.45
4.87
9.45
13.77
17.37
19.86
20.96
20.60
18.97
16.42
13.38
10.25
7.38
5.04
3.53
3.11
4.02
6.26
9.56
13.29
16.68
18.98
19.76
19.02
17.10
14.55
11.88
9.46
7.50
6.11
5.35
5.28
5.88
7.06
8.59
10.25
11.83
13.29
14.73
16.38
18.51
21.32
24.88
29.09
33.73
38.48
43.04
47.20
50.87
54.14
57.27
60.57
64.34
68.76
73.79
79.26
84.91
90.59
96.32
102.36
109.08
116.88
125.99
136.34
147.45
158.43
168.16
175.65
180.40
182.67
183.29
183.23
183.06
182.48
180.47
175.62
166.79
153.48
136.01
115.27
92.51
69.01
45.82
23.41
1.59
-20.59
-44.43
-71.00
-100.49
-131.91
-163.27
-192.18
-216.64
-235.45
-248.24
-255.15
-256.43
-252.36
-243.35
-230.27
-214.50
-197.81
-181.83
-167.61
-155.32
-144.37
-133.82
-122.88
-111.27
-99.27
-87.45
-76.28
-65.95
-56.24
-46.80
-37.42
-28.19
-19.55
-12.08
-6.22
-2.13
0.41
1.82
2.57
2.98
3.26
3.47
3.65
3.87
4.22
4.79
5.66
6.82
8.20
9.62
10.89
11.77
12.10
11.76
10.66
8.71
5.79
1.80
-3.24
-9.07
-15.18
-20.96
-25.86
-29.59
-32.19
-33.87
-34.97
-35.72
-36.28
-36.81
-37.42
-38.21
-39.25
-40.44
-41.65
-42.67
-43.39
-43.79
-43.94
-43.99
-44.09
-44.32
-44.66
-45.04
-45.28
-45.22
-44.68
-43.61
-42.02
-39.95
-37.47
-34.63
-31.52
-28.25
-24.97
-21.77
-18.71
-15.80
-13.00
-10.32
-7.78
-5.47
-3.45
-1.82
-0.70
-0.25
-0.63
-1.88
-3.86
-6.18
-8.29
-9.62
-9.74
-8.55
-6.22
-3.13
0.23
3.49
6.41
8.94
11.06
12.70
13.69
13.80
12.93
11.22
9.07
6.99
5.43
4.58
4.34
4.46
4.67
4.91
5.29
6.02
7.34
9.30
11.79
14.53
17.24
19.69
21.88
24.04
26.54
29.69
33.51
37.72
41.72
44.88
46.80
47.46
47.27
46.91
47.14
48.57
51.45
55.52
59.88
63.08
63.38
59.25
49.94
35.81
18.41
0.07
-16.75
-30.10
-38.90
-43.02
-43.03
-39.93
-34.84
-28.89
-23.09
-18.25
-14.88
-13.03
-12.42
-12.49
-12.64
-12.37
-11.40
-9.61
-7.05
-3.88
-0.34
3.20
6.33
8.66
9.94
10.08
9.17
7.38
4.96
2.17
-0.70
-3.34
-5.50
-7.01
-7.88
-8.33
-8.68
-9.27
-10.28
-11.71
-13.35
-14.86
-15.90
-16.19
-15.59
-14.14
-12.09
-9.84
-7.89
-6.66
-6.35
-6.84
-7.75
-8.56
-8.84
-8.34
-7.07
-5.15
-2.80
-0.21
2.45
5.00
7.29
9.17
10.56
11.41
11.65
11.19
9.91
7.79
4.97
1.79
-1.32
-3.98
-6.02
-7.42
-8.31
-8.83
-9.02
-8.85
-8.27
-7.25
-5.90
-4.41
-2.96
-1.65
-0.48
0.67
1.89
3.17
4.42
5.46
6.14
6.37
6.16
5.54
4.58
3.26
1.58
-0.43
-2.69
-5.02
-7.22
-9.15
-10.74
-12.03
-13.19
-14.39
-15.79
-17.46
-19.32
-21.07
-22.30
-22.55
-21.54
-19.23
-15.90
-12.01
-8.09
-4.57
-1.67
0.63
2.53
4.43
6.80
9.96
13.85
17.85
20.87
21.61
19.17
13.48
5.45
-3.28
-10.91
-16.06
-17.99
-16.69
-12.53
-6.07
2.06
11.10
20.12
28.18
34.44
38.46
40.27
40.32
39.27
37.76
36.25
34.94
33.83
32.78
31.54
29.92
27.82
25.29
22.57
20.00
17.90
16.47
15.69
15.42
15.45
15.60
15.81
16.12
16.57
17.16
17.84
18.63
19.63
21.03
23.03
25.72
28.94
32.36
35.59
38.35
40.63
42.60
44.54
46.60
48.64
50.16
50.42
48.62
44.20
36.97
27.25
15.76
3.48
-8.65
-19.80
-29.37
-37.03
-42.63
-46.25
-48.18
-48.88
-48.87
-48.66
-48.51
-48.43
-48.08
-46.90
-44.19
-39.33
-32.03
-22.51
-11.57
-0.44
9.62
17.62
23.23
26.74
28.89
30.40
31.63
32.28
31.50
28.17
21.24
10.20
-4.72
-22.56
-41.88
-61.09
-78.77
-93.77
-105.19
-112.31
-114.55
-111.54
-103.37
-90.69
-74.71
-57.00
-39.14
-22.43
-7.63
4.96
15.45
24.05
30.93
36.16
39.75
41.67
42.06
41.15
39.30
36.89
34.30
31.82
29.60
27.63
25.70
23.43
20.42
16.36
11.22
5.28
-0.96
-6.99
-12.50
-17.43
-22.07
-26.78
-31.86
-37.31
-42.85
-47.96
-52.14
-55.08
-56.80
-57.59
-57.85
-57.87
-57.70
-57.04
-55.42
-52.22
-46.98
-39.45
-29.75
-18.44
-6.56
4.53
13.37
18.84
20.56
19.03
15.55
11.78
9.25
8.97
11.28
16.04
22.78
30.85
39.43
47.53
54.01
57.93
58.82
57.00
53.46
49.51
46.27
44.25
43.24
42.53
41.29
38.94
35.39
30.97
26.30
22.06
18.84
16.95
16.45
17.10
18.54
20.29
22.03
23.55
24.88
26.12
27.37
28.67
29.95
31.09
31.97
32.53
32.90
33.42
34.68
37.46
42.55
50.50
61.44
74.91
90.05
105.77
121.09
135.37
148.42
160.58
172.54
185.14
199.01
214.09
229.31
242.43
250.38
249.99
238.82
215.97
182.49
141.33
96.68
53.02
14.20
-17.40
-41.03
-57.35
-67.75
-73.69
-76.16
-75.57
-71.94
-65.24
-55.72
-44.06
-31.34
-18.84
-7.80
0.85
6.62
9.52
9.93
8.38
5.37
1.42
-3.00
-7.34
-11.13
-14.13
-16.54
-19.00
-22.28
-26.91
-32.84
-39.39
-45.50
-50.25
-53.26
-54.95
-56.40
-58.97
-63.82
-71.59
-82.30
-95.48
-110.43
-126.49
-143.06
-159.51
-174.90
-187.80
-196.40
-198.99
-194.65
-183.85
-168.52
-151.56
-135.79
-122.99
-113.39
-105.89
-98.84
-90.97
-81.93
-72.28
-62.96
-54.87
-48.50
-44.05
-41.63
-41.36
-43.30
-47.06
-51.61
-55.27
-56.22
-53.02
-45.28
-33.76
-20.08
-5.91
7.78
21.14
35.22
51.18
69.44
89.16
108.36
124.61
135.87
141.07
140.11
133.56
122.05
106.10
86.18
63.04
37.76
11.73
-13.88
-38.49
-62.16
-85.27
-107.87
-129.11
-147.18
-159.82
-165.16
-162.59
-153.16
-139.34
-124.28
-110.89
-101.20
-95.99
-94.81
-96.25
-98.33
-99.03
-96.93
-91.68
-84.26
-76.75
-71.63
-70.80
-74.71
-81.99
-89.60
-93.70
-90.79
-78.80
-57.83
-30.11
0.68
30.43
55.73
74.71
87.12
93.98
96.81
96.95
95.23
92.01
87.55
82.29
76.88
72.00
68.00
64.70
61.51
57.83
53.44
48.76
44.76
42.42
42.29
44.13
47.05
49.92
51.85
52.49
52.00
50.81
49.22
47.20
44.43
40.55
35.39
29.13
22.36
15.80
10.07
5.51
2.17
-0.15
-1.67
-2.57
-2.93
-2.72
-1.94
-0.58
1.30
3.63
6.23
8.79
10.93
12.24
12.46
11.56
9.79
7.61
5.48
3.76
2.64
2.19
2.39
3.19
4.49
6.10
7.72
8.99
9.53
9.04
7.36
4.46
0.50
-4.23
-9.25
-14.00
-17.87
-20.38
-21.33
-20.90
-19.62
-18.16
-17.13
-16.79
-17.00
-17.34
-17.34
-16.68
-15.34
-13.47
-11.24
-8.71
-5.83
-2.51
1.29
5.49
9.98
14.69
19.72
25.20
31.23
37.70
44.24
50.30
55.30
58.77
60.48
60.46
58.95
56.33
53.07
49.68
46.58
44.01
41.93
39.98
37.60
34.30
29.84
24.57
19.32
15.24
13.33
14.06
17.24
22.03
27.33
32.17
36.04
38.96
41.36
43.88
47.14
51.55
57.20
63.80
70.71
77.09
82.25
86.00
88.94
92.33
97.46
104.66
112.51
117.63
115.42
101.57
73.62
32.00
-19.97
-76.92
-132.57
-181.00
-217.47
-239.02
-244.81
-236.25
-216.67
-190.59
-162.66
-136.56
-114.47
-97.01
-83.89
-74.50
-68.46
-65.72
-66.36
-70.24
-76.78
-84.81
-92.65
-98.38
-100.33
-97.51
-89.94
-78.47
-64.48
-49.36
-34.34
-20.33
-8.10
1.76
9.02
14.05
17.85
21.80
26.93
33.17
39.10
42.31
40.62
33.35
22.05
10.14
1.56
-0.93
3.14
11.95
22.43
31.77
38.65
43.38
47.18
51.14
55.34
58.94
60.81
60.41
58.30
56.00
55.33
57.63
63.28
71.62
81.21
90.25
96.83
99.23
96.13
87.00
72.43
54.32
35.42
18.68
6.27
-0.99
-3.66
-3.18
-1.07
1.58
4.31
7.06
9.94
13.03
16.37
19.98
23.81
27.62
30.93
33.19
33.98
33.30
31.63
29.71
28.31
27.95
28.87
31.19
35.07
40.69
48.20
57.52
68.27
79.87
91.57
102.57
111.94
118.61
121.44
119.47
112.40
100.78
86.05
70.11
54.76
41.15
29.57
19.68
10.87
2.65
-5.16
-12.43
-18.97
-24.76
-29.96
-34.93
-40.01
-45.35
-50.80
-56.00
-60.44
-63.69
-65.53
-65.99
-65.28
-63.64
-61.31
-58.38
-54.92
-50.97
-46.68
-42.26
-37.96
-34.05
-30.74
-28.12
-26.18
-24.85
-23.96
-23.40
-23.11
-23.02
-23.12
-23.34
-23.61
-23.85
-23.97
-23.91
-23.63
-23.17
-22.64
-22.20
-22.04
-22.30
-23.04
-24.25
-25.81
-27.62
-29.51
-31.27
-32.60
-33.15
-32.57
-30.69
-27.59
-23.54
-18.96
-14.24
-9.62
-5.28
-1.33
2.09
4.84
6.84
8.05
8.53
8.43
7.94
7.25
6.58
6.04
5.68
5.44
5.21
4.85
4.26
3.41
2.28
0.77
-1.22
-3.79
-6.89
-10.26
-13.49
-16.16
-17.99
-18.88
-18.81
-17.83
-15.91
-13.02
-9.21
-4.72
0.06
4.55
8.22
10.69
11.80
11.66
10.51
8.70
6.57
4.38
2.33
0.56
-0.80
-1.61
-1.75
-1.14
0.19
2.03
4.09
6.02
7.50
8.32
8.40
7.78
6.52
4.71
2.43
-0.23
-3.11
-6.00
-8.67
-10.93
-12.76
-14.28
-15.65
-16.99
-18.22
-19.04
-19.02
-17.78
-15.16
-11.28
-6.51
-1.40
3.51
7.75
11.01
13.12
14.10
14.05
13.17
11.65
9.62
7.13
4.20
1.02
-1.97
-3.88
-3.51
0.37
8.55
20.97
36.55
53.30
68.87
81.18
88.91
91.70
90.07
85.07
77.95
69.96
62.16
55.31
49.62
44.56
38.93
31.15
19.94
4.95
-12.92
-31.67
-48.68
-61.50
-68.38
-68.72
-63.12
-53.25
-41.58
-30.81
-23.31
-20.55
-22.74
-28.96
-37.55
-46.74
-55.09
-61.72
-66.31
-68.95
-69.95
-69.78
-68.94
-67.92
-67.00
-66.19
-65.21
-63.50
-60.44
-55.46
-48.26
-38.96
-28.15
-16.80
-6.08
2.99
9.80
14.32
17.02
18.75
20.50
23.33
28.23
35.84
46.19
58.38
70.66
80.79
86.87
87.98
84.61
78.27
70.71
63.00
54.91
45.01
31.57
13.67
-7.90
-30.43
-50.13
-63.51
-68.58
-65.44
-55.95
-42.64
-27.77
-12.78
1.43
14.02
23.80
29.53
30.51
27.17
21.09
14.48
9.15
5.89
4.22
2.88
0.52
-3.60
-9.28
-15.46
-20.69
-23.63
-23.62
-20.81
-16.11
-10.80
-5.99
-2.31
0.22
1.96
3.38
4.79
6.20
7.43
8.30
8.73
8.82
8.69
8.41
7.95
7.23
6.21
4.97
3.79
2.99
2.82
3.38
4.51
5.86
7.05
7.77
7.96
7.79
7.59
7.72
8.40
9.61
11.11
12.61
13.88
14.88
15.78
16.85
18.28
20.05
21.98
23.71
24.92
25.37
24.97
23.81
22.05
19.97
17.91
16.25
15.32
15.24
15.73
16.05
15.15
12.02
6.14
-2.23
-11.91
-21.25
-28.53
-32.59
-33.09
-30.41
-25.48
-19.26
-12.64
-6.27
-0.65
3.89
7.17
9.17
10.06
10.04
9.35
8.19
6.89
6.00
6.33
8.75
13.95
22.13
32.99
45.84
59.90
74.51
89.15
103.27
116.09
126.57
133.64
136.54
135.28
130.64
124.10
117.38
111.96
108.67
107.50
107.54
107.17
104.45
97.57
85.46
68.19
47.05
23.98
0.81
-21.67
-44.13
-68.47
-97.09
-132.25
-175.45
-226.99
-285.35
-346.67
-404.58
-451.12
-478.72
-482.52
-462.14
-421.72
-368.12
-308.17
-246.51
-185.08
-124.42
-65.65
-11.56
33.95
67.82
89.75
102.74
111.81
121.54
133.93
147.72
159.51
166.00
165.85
160.23
151.84
143.23
135.53
128.32
120.39
110.95
100.26
89.56
80.38
73.76
69.83
67.91
67.16
67.23
68.82
73.69
84.06
101.78
127.43
159.96
196.96
235.39
272.38
305.82
334.58
358.37
377.41
392.04
402.32
407.84
407.71
400.96
387.08
366.55
340.96
312.56
283.46
254.87
226.92
199.06
170.76
142.09
113.84
87.14
62.88
41.27
21.76
3.36
-14.97
-33.94
-53.71
-74.07
-94.66
-115.34
-136.33
-158.24
-181.82
-207.91
-237.36
-270.93
-308.99
-350.92
-394.42
-435.36
-468.43
-488.69
-493.36
-482.90
-461.03
-433.29
-405.22
-380.72
-361.38
-346.80
-335.36
-324.95
-313.30
-298.22
-277.95
-251.72
-220.17
-185.21
-149.14
-113.55
-78.48
-42.41
-3.18
40.84
89.88
142.45
195.52
244.96
286.04
314.00
324.80
316.23
288.66
245.41
192.09
135.18
80.60
32.75
-5.66
-33.20
-49.48
-54.98
-51.32
-41.16
-27.74
-14.04
-2.02
7.69
15.36
21.43
25.81
27.78
26.50
21.70
14.29
6.26
0.14
-1.79
1.79
10.79
23.67
37.86
50.18
57.80
59.00
54.00
45.10
36.17
31.15
32.42
39.66
49.83
58.56
62.15
59.36
51.82
43.09
36.90
35.55
39.39
47.33
58.05
70.85
85.92
103.78
124.62
147.92
172.51
197.04
220.29
241.44
259.91
275.22
286.74
293.61
294.86
289.70
277.91
260.13
238.01
213.79
189.72
167.37
147.26
128.81
110.86
92.21
72.03
50.00
26.39
2.10
-21.32
-41.83
-57.51
-67.36
-71.96
-73.57
-75.41
-80.37
-89.96
-103.78
-120.07
-136.74
-152.39
-166.87
-181.10
-196.38
-213.72
-233.42
-255.11
-278.02
-301.11
-323.08
-342.41
-357.55
-367.40
-371.94
-372.71
-372.79
-376.00
-385.63
-403.13
-427.52
-455.69
-483.57
-507.45
-524.95
-535.28
-538.93
-537.02
-530.78
-521.20
-508.74
-493.25
-474.05
-450.15
-420.83
-386.02
-346.66
-304.57
-261.82
-220.13
-180.36
-142.47
-105.83
-69.56
-32.75
5.45
45.72
88.27
132.33
175.84
215.74
248.95
273.59
289.92
300.20
307.69
315.19
323.75
332.50
339.45
342.90
342.50
339.43
335.73
333.08
332.03
332.01
331.98
331.25
329.93
328.80
328.63
329.49
330.50
330.09
326.61
319.01
306.93
290.50
269.81
244.59
214.45
179.48
140.91
101.39
64.50
33.74
11.20
-3.31
-12.47
-20.63
-32.45
-51.52
-79.38
-115.38
-157.12
-201.18
-243.98
-282.22
-313.21
-334.88
-345.87
-345.61
-334.36
-313.40
-284.85
-251.32
-215.33
-178.84
-142.99
-108.10
-73.98
-40.29
-6.85
26.15
58.16
88.33
115.67
139.34
158.90
174.37
186.21
194.96
200.97
204.35
205.03
203.26
199.78
195.88
193.01
192.38
194.72
200.47
210.24
224.96
245.41
271.14
299.60
326.02
344.56
350.41
341.57
319.66
288.98
254.60
220.39
187.96
157.04
126.57
95.92
65.37
35.76
7.80
-18.51
-43.87
-69.32
-95.69
-123.34
-152.35
-182.63
-214.04
-246.06
-277.48
-306.26
-329.92
-346.31
-354.27
-354.01
-346.78
-334.33
-318.44
-300.86
-283.48
-268.58
-258.60
-255.57
-260.47
-272.94
-291.44
-313.79
-337.73
-361.25
-382.63
-400.60
-414.36
-423.84
-429.73
-433.33
-436.12
-439.00
-441.80
-443.17
-440.95
-433.05
-418.29
-396.93
-370.57
-341.63
-312.50
-284.93
-259.79
-237.32
-217.44
-200.06
-185.15
-172.46
-161.47
-151.35
-141.28
-130.65
-119.32
-107.59
-95.99
-84.98
-74.78
-65.22
-55.92
-46.40
-36.31
-25.58
-14.43
-3.28
7.41
17.31
26.30
34.54
42.37
50.21
58.37
66.94
75.79
84.57
92.88
100.44
107.25
113.62
120.10
127.28
135.57
145.00
155.30
165.94
176.48
186.67
196.62
206.69
217.44
229.55
243.74
260.56
279.99
300.99
321.23
337.49
346.52
346.23
336.41
318.78
296.30
271.97
248.02
225.58
204.94
186.13
169.23
154.37
141.45
130.04
119.35
108.59
97.29
85.50
73.77
62.87
53.50
45.97
40.11
35.29
30.76
26.03
21.15
16.74
13.77
13.05
14.85
18.71
23.61
28.40
32.27
34.92
36.52
37.41
37.88
38.12
38.43
39.30
41.50
45.72
52.25
60.69
70.03
78.95
86.37
91.70
94.90
96.17
95.71
93.61
90.04
85.49
80.86
77.25
75.49
75.66
77.05
78.33
78.16
75.77
71.16
64.97
58.11
51.38
45.26
39.92
35.40
31.69
28.81
26.66
25.04
23.66
22.20
20.48
18.45
16.24
14.00
11.93
10.14
8.75
7.82
7.44
7.68
8.52
9.82
11.32
12.67
13.54
13.71
13.11
11.79
9.95
7.81
5.63
3.69
2.30
1.75
2.25
3.90
6.59
10.03
13.74
17.17
19.72
20.92
20.51
18.56
15.50
12.04
8.96
6.88
6.01
6.06
6.32
5.82
3.67
-0.62
-7.00
-14.78
-22.86
-29.99
-35.16
-37.80
-37.92
-35.93
-32.46
-28.10
-23.32
-18.46
-13.71
-9.26
-5.25
-1.87
0.77
2.59
3.67
4.20
4.44
4.68
5.10
5.81
6.79
7.98
9.31
10.71
12.08
13.26
14.07
14.40
14.23
13.60
12.64
11.44
10.14
8.93
8.10
7.95
8.73
10.45
12.92
15.72
18.41
20.59
22.05
22.80
23.04
23.13
23.48
24.46
26.19
28.48
30.77
32.37
32.62
31.18
28.04
23.63
18.66
13.95
10.26
8.09
7.54
8.32
9.90
11.62
12.98
13.70
13.76
13.24
12.21
10.59
8.14
4.63
-0.02
-5.56
-11.39
-16.71
-20.70
-22.86
-23.06
-21.65
-19.16
-16.17
-13.13
-10.31
-7.87
-5.93
-4.59
-3.86
-3.62
-3.62
-3.58
-3.31
-2.81
-2.28
-1.93
-1.76
-1.49
-0.56
1.59
5.12
9.63
14.22
17.88
19.94
20.42
19.95
19.42
19.52
20.45
21.91
23.45
24.72
25.61
26.25
26.72
26.94
26.70
25.76
24.13
22.14
20.22
18.72
17.57
16.29
14.17
10.70
5.83
0.09
-5.60
-10.29
-13.32
-14.46
-13.87
-11.90
-9.00
-5.61
-2.16
0.99
3.68
5.98
8.16
10.51
13.12
15.76
17.90
19.02
18.80
17.28
14.87
12.13
9.53
7.23
5.10
2.79
-0.07
-3.67
-7.92
-12.51
-16.99
-20.92
-23.98
-26.05
-27.12
-27.28
-26.59
-25.09
-22.81
-19.84
-16.40
-12.84
-9.60
-7.05
-5.37
-4.45
-3.92
-3.37
-2.45
-1.13
0.37
1.60
2.17
1.89
0.91
-0.31
-1.15
-1.03
0.34
2.92
6.35
10.16
13.90
17.30
20.25
22.77
24.90
26.67
28.13
29.33
30.21
30.62
30.31
29.07
26.96
24.42
22.18
20.95
21.14
22.62
24.81
27.00
28.71
29.85
30.66
31.49
32.52
33.69
34.71
35.25
35.06
34.03
32.14
29.38
25.79
21.47
16.66
11.67
6.84
2.42
-1.53
-5.08
-8.32
-11.31
-14.07
-16.62
-19.07
-21.59
-24.34
-27.41
-30.83
-34.65
-39.03
-44.23
-50.39
-57.34
-64.41
-70.53
-74.52
-75.39
-72.70
-66.59
-57.68
-46.91
-35.38
-24.19
-14.43
-6.89
-1.92
0.69
1.70
2.09
2.68
3.82
5.28
6.39
6.45
5.04
2.12
-1.97
-6.75
-11.74
-16.54
-20.74
-23.95
-25.81
-26.11
-24.92
-22.58
-19.60
-16.48
-13.47
-10.63
-7.86
-5.02
-2.04
1.05
4.17
7.18
9.94
12.25
13.80
14.27
13.34
10.96
7.40
3.29
-0.44
-2.87
-3.39
-1.93
1.03
4.60
7.82
9.94
10.49
9.36
6.69
2.92
-1.18
-4.53
-5.98
-4.66
-0.32
6.48
14.65
23.02
30.78
37.68
43.78
49.14
53.57
56.64
58.02
57.78
56.44
54.82
53.62
53.06
52.87
52.51
51.49
49.60
47.04
44.15
41.19
38.11
34.55
29.97
23.95
16.37
7.59
-1.61
-10.24
-17.42
-22.64
-25.91
-27.67
-28.62
-29.38
-30.35
-31.61
-33.04
-34.46
-35.71
-36.72
-37.45
-37.82
-37.73
-37.03
-35.62
-33.49
-30.74
-27.62
-24.46
-21.58
-19.24
-17.52
-16.35
-15.52
-14.85
-14.21
-13.68
-13.37
-13.37
-13.62
-13.88
-13.90
-13.48
-12.68
-11.77
-11.13
-11.03
-11.48
-12.22
-12.77
-12.72
-11.79
-10.01
-7.61
-4.86
-1.99
0.89
3.79
6.71
9.57
12.21
14.38
15.87
16.53
16.31
15.28
13.60
11.53
9.35
7.35
5.71
4.44
3.39
2.34
1.05
-0.57
-2.44
-4.37
-6.18
-7.80
-9.30
-10.80
-12.47
-14.39
-16.54
-18.86
-21.25
-23.57
-25.69
-27.44
-28.63
-29.15
-28.94
-28.08
-26.69
-24.97
-23.09
-21.20
-19.42
-17.84
-16.50
-15.35
-14.24
-13.00
-11.49
-9.66
-7.60
-5.45
-3.37
-1.45
0.27
1.78
3.04
3.98
4.53
4.67
4.43
3.90
3.19
2.42
1.66
0.96
0.32
-0.30
-0.97
-1.68
-2.31
-2.69
-2.62
-1.97
-0.82
0.65
2.23
3.79
5.33
6.93
8.70
10.56
12.33
13.69
14.42
14.47
14.01
13.30
12.57
11.89
11.14
10.11
8.58
6.58
4.29
2.11
0.38
-0.63
-0.91
-0.59
0.06
0.75
1.28
1.49
1.29
0.65
-0.45
-1.95
-3.73
-5.57
-7.18
-8.29
-8.70
-8.30
-7.13
-5.36
-3.24
-1.09
0.80
2.25
3.23
3.88
4.44
5.17
6.24
7.67
9.34
11.08
12.70
14.06
15.03
15.49
15.30
14.40
12.81
10.72
8.42
6.28
4.54
3.29
2.43
1.75
1.08
0.35
-0.41
-1.15
-1.87
-2.67
-3.65
-4.80
-5.97
-6.82
-7.00
-6.30
-4.75
-2.60
-0.23
2.01
3.96
5.54
6.80
7.75
8.36
8.54
8.26
7.58
6.68
5.76
5.04
4.60
4.43
4.44
4.51
4.55
4.50
4.35
4.07
3.65
3.05
2.27
1.31
0.27
-0.75
-1.62
-2.28
-2.77
-3.26
-3.94
-4.97
-6.43
-8.31
-10.45
-12.68
-14.78
-16.55
-17.76
-18.29
-18.07
-17.18
-15.80
-14.13
-12.33
-10.46
-8.46
-6.29
-3.95
-1.56
0.71
2.71
4.34
5.63
6.59
7.26
7.64
7.70
7.49
7.06
6.55
6.07
5.74
5.63
5.74
6.05
6.45
6.81
6.97
6.77
6.13
5.06
3.60
1.83
-0.20
-2.49
-5.01
-7.74
-10.59
-13.40
-15.98
-18.14
-19.67
-20.43
-20.32
-19.36
-17.69
-15.55
-13.21
-10.96
-8.97
-7.30
-5.94
-4.81
-3.84
-2.94
-2.00
-0.91
0.50
2.37
4.77
7.65
10.85
14.17
17.34
20.17
22.56
24.48
26.02
27.31
28.50
29.70
30.93
32.13
33.18
33.93
34.32
34.42
34.39
34.47
34.76
35.17
35.39
35.00
33.69
31.40
28.52
25.76
23.93
23.74
25.59
29.48
35.09
41.79
48.77
55.12
59.89
62.28
61.83
58.56
52.99
45.96
38.49
31.40
25.20
19.88
15.09
10.23
4.74
-1.67
-8.98
-16.88
-24.94
-32.73
-39.95
-46.36
-51.72
-55.79
-58.34
-59.27
-58.66
-56.78
-53.97
-50.61
-47.02
-43.46
-40.16
-37.32
-35.06
-33.43
-32.35
-31.62
-30.93
-29.99
-28.48
-26.25
-23.33
-19.91
-16.38
-13.10
-10.35
-8.18
-6.44
-4.90
-3.33
-1.67
-0.01
1.48
2.66
3.52
4.14
4.67
5.19
5.67
5.99
6.00
5.60
4.84
3.82
2.67
1.49
0.35
-0.73
-1.68
-2.39
-2.77
-2.74
-2.34
-1.74
-1.13
-0.71
-0.58
-0.71
-0.97
-1.21
-1.31
-1.18
-0.78
-0.10
0.87
2.06
3.31
4.36
4.93
4.82
3.98
2.57
0.86
-0.82
-2.23
-3.15
-3.51
-3.33
-2.77
-2.04
-1.40
-1.03
-1.00
-1.23
-1.60
-2.00
-2.42
-2.91
-3.56
-4.40
-5.39
-6.46
-7.57
-8.71
-9.88
-11.04
-12.10
-12.92
-13.40
-13.54
-13.41
-13.08
-12.57
-11.87
-10.93
-9.76
-8.44
-7.06
-5.66
-4.17
-2.49
-0.56
1.49
3.42
4.97
5.94
6.30
6.17
5.74
5.18
4.64
4.20
3.95
3.90
4.01
4.15
4.12
3.76
3.04
2.09
1.16
0.49
0.17
0.05
-0.15
-0.72
-1.76
-3.11
-4.38
-5.18
-5.27
-4.65
-3.51
-2.11
-0.69
0.62
1.76
2.68
3.33
3.70
3.86
3.92
4.02
4.18
4.38
4.52
4.56
4.54
4.61
4.97
5.77
7.08
8.91
11.14
13.65
16.21
18.57
20.43
21.55
21.77
21.10
19.69
17.85
15.95
14.30
13.10
12.37
11.98
11.73
11.44
10.98
10.30
9.39
8.19
6.64
4.74
2.57
0.36
-1.58
-3.01
-3.84
-4.16
-4.21
-4.22
-4.33
-4.55
-4.87
-5.26
-5.81
-6.56
-7.53
-8.64
-9.74
-10.69
-11.42
-11.97
-12.40
-12.75
-13.00
-13.08
-12.89
-12.39
-11.56
-10.42
-9.07
-7.60
-6.16
-4.86
-3.81
-3.06
-2.57
-2.29
-2.14
-2.04
-1.92
-1.70
-1.30
-0.68
0.15
1.14
2.16
3.14
4.07
4.99
5.98
7.05
8.16
9.17
9.92
10.31
10.39
10.25
10.01
9.72
9.31
8.67
7.75
6.56
5.26
3.97
2.79
1.74
0.77
-0.18
-1.09
-1.90
-2.56
-3.07
-3.53
-4.12
-5.02
-6.27
-7.78
-9.30
-10.50
-11.08
-10.89
-9.98
-8.48
-6.61
-4.61
-2.65
-0.87
0.63
1.77
2.58
3.12
3.52
3.86
4.18
4.38
4.29
3.75
2.69
1.18
-0.59
-2.35
-3.88
-5.01
-5.65
-5.78
-5.43
-4.69
-3.74
-2.82
-2.17
-1.98
-2.34
-3.18
-4.34
-5.64
-6.93
-8.08
-9.01
-9.59
-9.66
-9.06
-7.76
-5.92
-3.85
-1.91
-0.39
0.63
1.26
1.65
1.91
2.07
2.06
1.87
1.52
1.10
0.68
0.19
-0.52
-1.60
-3.06
-4.73
-6.29
-7.43
-7.98
-7.92
-7.40
-6.63
-5.79
-5.03
-4.51
-4.35
-4.67
-5.48
-6.65
-7.85
-8.70
-8.91
-8.35
-7.14
-5.53
-3.81
-2.20
-0.74
0.59
1.83
3.01
4.08
5.00
5.73
6.26
6.56
6.62
6.42
5.93
5.18
4.24
3.22
2.24
1.36
0.57
-0.17
-0.89
-1.57
-2.12
-2.41
-2.37
-2.03
-1.55
-1.14
-0.97
-1.15
-1.62
-2.26
-2.89
-3.38
-3.65
-3.67
-3.47
-3.13
-2.76
-2.43
-2.14
-1.82
-1.36
-0.70
0.13
0.96
1.59
1.85
1.69
1.25
0.69
0.21
-0.06
-0.10
0.06
0.34
0.68
0.97
1.19
1.35
1.53
1.87
2.48
3.39
4.49
5.62
6.59
7.29
7.70
7.83
7.68
7.24
6.46
5.34
3.96
2.47
1.04
-0.21
-1.25
-2.08
-2.67
-2.93
-2.71
-1.89
-0.49
1.29
3.13
4.73
5.88
6.56
6.92
7.17
7.46
7.83
8.15
8.27
8.05
7.50
6.66
5.68
4.69
3.80
3.14
2.84
3.05
3.87
5.31
7.20
9.24
11.08
12.42
13.09
13.11
12.66
12.01
11.48
11.35
11.73
12.56
13.61
14.57
15.19
15.36
15.10
14.50
13.58
12.26
10.41
7.99
5.07
1.90
-1.21
-4.06
-6.62
-9.03
-11.49
-14.14
-17.00
-19.99
-23.01
-26.05
-29.24
-32.73
-36.60
-40.69
-44.67
-48.13
-50.83
-52.79
-54.27
-55.54
-56.66
-57.37
-57.15
-55.52
-52.31
-47.81
-42.65
-37.58
-33.13
-29.52
-26.68
-24.39
-22.53
-21.04
-19.92
-19.08
-18.35
-17.46
-16.24
-14.63
-12.75
-10.83
-9.06
-7.50
-6.12
-4.79
-3.47
-2.15
-0.85
0.44
1.81
3.37
5.19
7.22
9.30
11.20
12.74
13.79
14.38
14.65
14.85
15.24
16.02
17.23
18.80
20.47
22.00
23.20
24.06
24.72
25.35
26.07
26.82
27.44
27.73
27.60
27.10
26.34
25.47
24.54
23.52
22.32
20.87
19.13
17.11
14.91
12.59
10.26
7.96
5.75
3.64
1.60
-0.40
-2.38
-4.26
-5.92
-7.24
-8.18
-8.82
-9.30
-9.76
-10.29
-10.87
-11.38
-11.66
-11.58
-11.06
-10.06
-8.64
-6.86
-4.87
-2.81
-0.78
1.16
2.95
4.48
5.67
6.49
6.93
7.08
7.01
7.10
7.67
8.84
10.50
12.36
14.06
15.36
16.13
16.38
16.84
18.14
20.59
24.03
27.90
31.50
34.33
36.16
37.00
37.99
40.18
44.22
50.02
56.91
63.96
70.48
76.30
81.71
88.91
100.20
117.28
140.43
168.30
198.39
228.10
255.59
271.11
267.91
242.85
198.20
140.83
79.27
20.53
-31.25
-74.40
-108.94
-134.38
-150.83
-159.09
-160.76
-158.09
-153.36
-148.30
-143.89
-140.51
-137.10
-132.59
-126.38
-118.58
-109.95
-101.50
-93.97
-87.65
-82.54
-77.81
-72.70
-66.76
-59.97
-52.75
-45.71
-39.40
-34.20
-30.30
-27.33
-24.80
-22.17
-19.09
-15.50
-11.58
-7.69
-4.20
-1.43
0.58
1.87
2.53
2.62
2.13
1.02
-0.66
-2.74
-5.19
-7.86
-10.63
-13.42
-16.16
-18.65
-20.55
-21.37
-20.72
-18.56
-15.28
-11.66
-8.61
-6.70
-6.03
-6.16
-6.46
-6.43
-5.93
-5.12
-4.29
-3.64
-3.16
-2.72
-2.22
-1.61
-1.06
-0.67
-0.47
-0.40
-0.31
-0.02
0.58
1.51
2.68
3.80
4.61
4.98
4.98
4.83
4.81
5.09
5.62
6.26
6.65
6.62
6.15
5.36
4.32
2.94
0.99
-1.92
-5.16
-8.39
-11.29
-13.54
-14.98
-15.58
-15.44
-14.69
-13.43
-11.65
-9.51
-7.10
-4.57
-2.05
0.29
2.39
4.26
6.02
7.94
10.18
12.89
16.06
19.52
22.97
26.08
28.57
30.23
30.97
30.68
29.34
26.95
23.58
19.30
14.24
8.50
2.28
-4.20
-10.63
-16.66
-21.92
-26.13
-29.13
-30.89
-31.56
-31.40
-30.79
-30.10
-29.61
-29.43
-29.47
-29.55
-29.44
-29.03
-28.36
-27.54
-26.68
-25.76
-24.67
-23.33
-21.83
-20.47
-19.64
-19.67
-20.61
-22.17
-23.82
-25.08
-25.68
-25.64
-25.22
-24.69
-24.21
-23.76
-23.22
-22.54
-21.79
-21.10
-20.56
-20.12
-19.65
-19.03
-18.25
-17.47
-16.88
-16.62
-16.67
-16.79
-16.72
-16.25
-15.33
-14.15
-12.99
-12.15
-11.85
-12.20
-13.19
-14.68
-16.47
-18.28
-19.80
-20.70
-20.67
-19.45
-16.89
-12.99
-7.93
-2.03
4.35
10.91
17.39
23.65
29.54
34.86
39.40
42.99
45.57
47.22
48.07
48.25
47.83
46.80
45.20
43.13
40.76
38.30
35.91
33.64
31.46
29.34
27.28
25.35
23.66
22.29
21.25
20.41
19.61
18.63
17.33
15.65
13.65
11.50
9.42
7.59
6.14
5.08
4.33
3.73
3.12
2.38
1.43
0.24
-1.19
-2.81
-4.52
-6.15
-7.48
-8.26
-8.33
-7.66
-6.33
-4.59
-2.68
-0.86
0.74
2.06
3.12
3.93
4.50
4.85
4.95
4.84
4.58
4.24
3.92
3.69
3.58
3.53
3.49
3.33
2.98
2.43
1.72
0.96
0.23
-0.44
-1.04
-1.56
-1.97
-2.18
-2.16
-1.97
-1.82
-1.93
-2.46
-3.37
-4.39
-5.17
-5.43
-5.04
-4.07
-2.68
-1.01
0.89
3.00
5.25
7.53
9.65
11.47
12.92
14.04
14.93
15.71
16.47
17.31
18.31
19.55
20.98
22.44
23.63
24.29
24.29
23.85
23.43
23.58
24.65
26.60
29.04
31.31
32.83
33.27
32.65
31.20
29.35
27.49
25.96
24.97
24.60
24.81
25.44
26.26
27.05
27.54
27.42
26.27
23.57
18.70
11.12
0.34
-13.93
-31.70
-52.42
-74.66
-96.07
-113.67
-124.64
-127.29
-121.72
-109.80
-94.49
-78.77
-64.84
-53.84
-46.06
-41.34
-39.28
-39.10
-39.53
-38.83
-35.28
-27.95
-17.14
-4.43
8.06
18.56
26.44
32.47
38.38
46.12
57.05
71.54
88.77
106.92
123.40
135.40
140.50
137.44
126.66
110.36
91.81
74.36
60.27
50.26
43.67
39.36
36.42
34.64
34.23
35.31
37.42
39.52
40.37
39.03
35.12
28.87
20.91
11.96
2.76
-6.02
-13.82
-20.23
-25.04
-28.29
-30.25
-31.38
-32.21
-33.29
-35.00
-37.51
-40.68
-44.06
-46.98
-48.73
-48.78
-46.86
-43.12
-38.01
-32.18
-26.31
-20.95
-16.42
-12.82
-10.06
-8.08
-6.91
-6.71
-7.71
-10.00
-13.46
-17.69
-22.17
-26.42
-30.12
-33.11
-35.27
-36.49
-36.65
-35.72
-33.95
-31.78
-29.85
-28.70
-28.66
-29.72
-31.63
-34.04
-36.64
-39.20
-41.47
-43.15
-43.74
-42.65
-39.32
-33.46
-25.10
-14.67
-2.82
9.80
22.68
35.54
48.27
60.81
72.93
84.35
94.68
103.61
110.99
116.81
121.10
123.86
125.02
124.62
122.91
120.41
117.66
114.87
111.67
107.07
99.90
89.40
75.72
59.95
43.78
28.76
15.78
4.89
-4.51
-13.10
-21.26
-28.92
-35.70
-41.22
-45.38
-48.34
-50.49
-52.12
-53.31
-53.86
-53.50
-52.08
-49.71
-46.83
-43.92
-41.37
-39.27
-37.40
-35.42
-33.00
-30.08
-26.79
-23.50
-20.61
-18.44
-17.19
-16.92
-17.51
-18.79
-20.53
-22.56
-24.72
-26.89
-28.97
-30.85
-32.48
-33.83
-34.94
-35.92
-36.89
-37.90
-38.98
-40.06
-41.07
-41.93
-42.57
-42.99
-43.21
-43.29
-43.29
-43.24
-43.14
-42.91
-42.45
-41.66
-40.45
-38.77
-36.57
-33.87
-30.71
-27.21
-23.57
-19.97
-16.53
-13.35
-10.44
-7.84
-5.64
-3.94
-2.81
-2.21
-1.97
-1.84
-1.61
-1.21
-0.78
-0.61
-0.99
-2.07
-3.80
-5.90
-8.10
-10.18
-12.11
-13.98
-15.95
-18.11
-20.47
-22.92
-25.35
-27.65
-29.75
-31.59
-33.14
-34.35
-35.25
-35.94
-36.53
-37.12
-37.76
-38.37
-38.79
-38.83
-38.26
-36.92
-34.76
-31.85
-28.41
-24.76
-21.22
-18.05
-15.38
-13.17
-11.29
-9.53
-7.74
-5.83
-3.87
-2.00
-0.47
0.51
0.85
0.64
0.12
-0.40
-0.72
-0.80
-0.75
-0.77
-1.00
-1.50
-2.22
-3.05
-3.90
-4.70
-5.42
-6.00
-6.40
-6.64
-6.82
-7.05
-7.42
-7.92
-8.38
-8.51
-8.02
-6.73
-4.68
-2.14
0.48
2.81
4.63
5.98
7.04
8.03
9.05
10.10
11.04
11.79
12.30
12.63
12.82
12.86
12.68
12.25
11.61
10.90
10.31
9.94
9.75
9.59
9.26
8.61
7.63
6.42
5.17
4.10
3.40
3.16
3.37
3.88
4.46
4.85
4.86
4.46
3.74
2.93
2.28
1.93
1.91
2.10
2.38
2.69
3.08
3.68
4.62
5.89
7.31
8.62
9.61
10.19
10.46
10.59
10.82
11.21
11.73
12.26
12.67
12.92
13.02
13.02
12.92
12.67
12.18
11.43
10.49
9.50
8.65
8.04
7.66
7.36
6.94
6.25
5.23
3.99
2.69
1.51
0.56
-0.13
-0.58
-0.82
-0.84
-0.64
-0.22
0.35
0.93
1.36
1.57
1.60
1.60
1.76
2.12
2.61
3.08
3.38
3.51
3.58
3.73
4.03
4.40
4.67
4.67
4.37
3.82
3.18
2.57
2.04
1.57
1.15
0.77
0.50
0.37
0.42
0.58
0.77
0.88
0.77
0.32
-0.54
-1.80
-3.28
-4.68
-5.62
-5.77
-5.01
-3.46
-1.49
0.48
2.11
3.30
4.14
4.83
5.49
6.10
6.59
6.86
6.93
6.93
7.02
7.30
7.74
8.13
8.22
7.83
6.92
5.63
4.21
2.93
1.92
1.18
0.59
-0.06
-0.85
-1.78
-2.76
-3.63
-4.31
-4.79
-5.08
-5.25
-5.26
-5.04
-4.50
-3.60
-2.38
-1.04
0.18
1.05
1.49
1.59
1.57
1.65
1.95
2.40
2.80
2.99
2.93
2.73
2.60
2.65
2.89
3.19
3.44
3.57
3.64
3.71
3.74
3.57
3.03
2.04
0.76
-0.44
-1.15
-1.10
-0.31
0.87
1.93
2.33
1.79
0.32
-1.81
-4.23
-6.52
-8.44
-9.83
-10.62
-10.74
-10.08
-8.55
-6.27
-3.54
-0.83
1.37
2.82
3.58
3.94
4.24
4.65
5.18
5.68
6.05
6.28
6.41
6.45
6.26
5.67
4.59
3.14
1.60
0.30
-0.53
-0.84
-0.69
-0.21
0.46
1.15
1.62
1.59
0.90
-0.33
-1.70
-2.60
-2.55
-1.39
0.60
2.87
4.80
6.00
6.40
6.20
5.75
5.36
5.18
5.26
5.55
6.03
6.77
7.94
9.77
12.43
15.96
20.23
24.82
29.17
32.60
34.47
34.41
32.44
28.99
24.80
20.67
17.19
14.51
12.43
10.52
8.46
6.33
4.57
3.93
5.02
7.92
12.00
16.02
18.60
18.83
16.83
13.82
11.71
12.33
16.61
24.09
33.10
41.46
47.48
50.76
52.36
54.28
58.42
65.73
75.76
87.07
97.77
106.22
111.04
111.10
105.84
96.18
85.68
80.44
87.38
110.93
150.02
197.19
240.83
269.53
276.48
261.48
229.74
188.66
144.50
100.73
58.49
18.07
-20.08
-55.37
-88.20
-120.89
-157.59
-202.65
-258.22
-321.95
-386.47
-441.02
-474.93
-481.57
-460.71
-418.30
-363.58
-305.29
-248.48
-193.66
-138.08
-78.45
-13.33
55.64
124.19
186.80
238.34
275.38
296.75
303.38
297.62
282.17
259.35
230.92
198.38
163.57
128.99
97.46
71.26
51.25
36.54
25.11
14.85
4.82
-4.25
-10.42
-11.64
-6.99
2.78
15.48
28.61
40.34
50.23
59.07
68.20
78.55
89.97
100.97
108.90
110.71
103.71
86.48
59.46
25.04
-12.93
-50.16
-83.08
-109.69
-129.64
-143.87
-153.68
-160.02
-163.34
-163.72
-161.40
-156.99
-151.34
-145.12
-138.43
-130.79
-121.55
-110.53
-98.50
-87.11
-78.38
-73.87
-74.02
-77.93
-83.68
-89.03
-92.17
-92.22
-89.27
-84.12
-77.83
-71.30
-65.11
-59.63
-55.08
-51.70
-49.69
-49.12
-49.81
-51.28
-52.86
-53.89
-53.90
-52.75
-50.60
-47.87
-44.97
-42.23
-39.72
-37.32
-34.84
-32.18
-29.51
-27.24
-25.95
-26.09
-27.89
-31.19
-35.56
-40.49
-45.58
-50.64
-55.66
-60.60
-65.31
-69.59
-73.31
-76.70
-80.39
-85.18
-91.73
-100.13
-109.91
-120.17
-130.06
-139.08
-147.09
-153.97
-159.17
-161.50
-159.39
-151.43
-136.84
-115.63
-88.29
-55.67
-19.03
19.50
56.56
87.88
109.55
119.78
120.21
115.79
113.00
117.22
130.45
150.82
173.84
194.79
210.63
220.71
225.98
227.61
225.97
220.58
210.91
197.20
180.82
163.78
147.93
134.15
122.22
111.26
100.35
89.14
77.90
67.37
58.29
51.02
45.38
40.67
35.92
30.26
23.29
15.26
7.00
-0.29
-5.58
-8.38
-8.93
-8.13
-7.28
-7.64
-10.04
-14.71
-21.30
-29.03
-36.97
-44.32
-50.57
-55.44
-58.87
-60.84
-61.41
-60.77
-59.35
-57.76
-56.65
-56.40
-56.79
-56.96
-55.62
-51.48
-43.82
-32.86
-19.75
-6.29
5.68
14.87
20.85
24.19
26.20
28.47
32.46
39.05
48.29
59.23
70.04
78.31
81.64
78.41
68.33
52.55
33.31
13.16
-5.86
-22.55
-36.47
-47.45
-55.24
-59.42
-59.69
-56.18
-49.69
-41.46
-32.82
-24.90
-18.63
-14.96
-14.83
-18.95
-27.17
-37.98
-48.57
-55.56
-56.32
-50.16
-38.72
-25.31
-13.51
-5.64
-2.29
-2.86
-6.59
-13.25
-22.70
-34.07
-45.33
-54.22
-60.06
-65.07
-73.89
-90.94
-117.08
-147.59
-173.22
-183.87
-172.99
-140.31
-91.28
-34.09
23.97
78.74
129.23
175.87
218.62
255.85
284.48
301.24
304.13
293.49
272.05
244.11
214.05
184.98
158.08
132.91
108.47
84.30
60.90
39.38
20.47
3.82
-11.90
-28.12
-45.19
-61.75
-75.14
-82.75
-83.46
-78.43
-70.73
-63.91
-60.44
-60.80
-63.67
-66.96
-68.93
-68.91
-67.24
-64.72
-62.07
-59.66
-57.65
-56.11
-55.03
-54.30
-53.54
-52.20
-49.73
-45.79
-40.40
-33.95
-27.01
-20.25
-14.33
-9.83
-7.12
-6.19
-6.60
-7.49
-7.81
-6.57
-3.17
2.51
10.05
18.66
27.41
35.32
41.66
45.97
48.19
48.53
47.43
45.35
42.69
39.67
36.36
32.80
29.10
25.52
22.41
20.07
18.64
17.90
17.37
16.42
14.47
11.13
6.35
0.36
-6.38
-13.25
-19.64
-25.14
-29.58
-33.07
-35.92
-38.43
-40.78
-42.96
-44.76
-45.92
-46.24
-45.57
-43.80
-40.81
-36.42
-30.45
-22.86
-13.87
-4.08
5.68
14.59
22.12
28.27
33.58
38.93
45.22
53.10
62.79
73.87
85.25
95.11
101.16
101.07
93.15
77.05
54.01
26.72
-1.39
-26.95
-47.38
-61.19
-67.98
-68.29
-63.35
-54.94
-45.09
-35.72
-28.29
-23.44
-20.96
-20.00
-19.42
-18.23
-15.91
-12.50
-8.54
-4.75
-1.76
0.23
1.51
2.76
4.78
8.14
13.01
19.11
25.83
32.46
38.33
42.91
45.89
47.20
47.05
45.85
44.10
42.22
40.39
38.39
35.71
31.74
26.01
18.45
9.53
0.12
-8.63
-15.71
-20.60
-23.39
-24.75
-25.68
-27.11
-29.65
-33.38
-37.88
-42.44
-46.16
-48.27
-48.33
-46.41
-43.08
-39.30
-36.05
-33.97
-33.04
-32.62
-31.67
-29.30
-25.06
-19.22
-12.55
-6.02
-0.44
3.92
7.34
10.66
14.94
21.19
30.04
41.51
54.87
68.74
81.44
91.39
97.60
100.08
99.81
98.43
97.66
98.57
101.18
104.46
106.80
106.68
103.24
96.48
86.94
75.34
62.15
47.58
31.85
15.59
0.04
-13.08
-22.10
-25.99
-24.79
-19.62
-12.30
-4.62
2.17
7.62
11.95
15.56
18.62
20.80
21.51
20.22
16.98
12.50
8.12
5.44
5.98
10.80
20.22
33.59
49.36
65.35
79.45
90.20
97.32
101.59
104.38
106.91
109.77
112.84
115.39
116.45
114.86
109.23
97.82
78.86
51.14
14.90
-27.82
-73.31
-117.11
-155.19
-185.00
-205.92
-219.11
-226.77
-231.37
-234.91
-238.60
-242.88
-247.70
-252.66
-257.08
-259.83
-259.23
-253.25
-240.10
-218.97
-190.72
-157.74
-123.29
-90.24
-60.09
-32.66
-6.62
19.64
47.18
75.99
105.23
133.54
159.43
181.48
198.35
208.87
212.26
208.51
198.54
184.10
167.39
150.35
134.16
119.02
104.33
89.16
72.76
54.84
35.51
15.04
-6.36
-28.55
-51.41
-74.62
-97.69
-119.98
-140.81
-159.30
-174.13
-183.46
-185.20
-177.68
-160.56
-135.30
-104.91
-73.03
-42.77
-15.91
7.09
26.34
41.66
52.08
56.14
52.83
42.54
27.56
11.74
-0.65
-6.35
-4.20
4.45
16.27
27.15
33.88
35.39
33.26
31.42
34.79
47.57
71.44
104.46
140.77
171.80
188.46
184.45
159.01
118.20
73.88
40.49
30.74
51.73
102.74
175.46
256.66
332.02
389.95
424.26
434.63
425.50
403.71
376.08
347.85
322.22
300.80
284.08
271.89
263.19
255.92
247.26
234.54
216.28
192.87
166.39
139.67
115.17
93.89
75.26
57.66
39.43
19.74
-1.72
-23.67
-43.44
-58.16
-66.14
-67.39
-63.31
-55.87
-46.85
-38.13
-30.23
-22.13
-12.10
1.04
17.09
34.52
50.92
63.69
68.71
64.03
50.96
32.99
13.47
-5.93
-25.29
-46.02
-69.97
-104.25
-151.89
-209.18
-268.18
-322.27
-368.94
-409.26
-446.10
-482.48
-532.42
-602.89
-689.06
-778.37
-859.55
-925.73
-971.93
-993.46
-986.99
-972.18
-965.23
-970.00
-980.62
-991.85
-1002.26
-1011.40
-1019.03
-1026.69
-1062.57
-1143.19
-1259.60
-1383.03
-1485.04
-1549.33
-1572.09
-1559.79
-1369.58
-961.67
-422.00
102.46
516.34
803.07
987.50
1101.85
1170.97
1210.41
1206.35
1154.08
1069.30
980.32
908.79
862.62
840.39
836.19
842.42
835.15
801.89
749.20
695.62
655.75
625.74
599.64
579.64
560.40
526.88
473.15
406.68
343.13
289.71
250.38
225.48
212.64
207.35
200.38
185.16
159.45
123.67
77.63
21.61
-41.36
-104.95
-160.97
-201.90
-221.91
-218.80
-195.25
-158.85
-118.74
-82.27
-53.28
-32.17
-16.09
-1.30
15.11
34.74
57.93
84.33
112.38
138.84
158.89
167.80
162.36
142.28
110.76
73.60
37.58
8.12
-12.26
-24.29
-30.82
-35.26
-40.07
-45.78
-51.12
-53.81
-51.90
-44.74
-33.16
-18.98
-4.15
9.83
21.99
31.64
38.04
40.40
38.32
32.15
23.10
13.02
3.98
-2.12
-3.74
0.15
9.70
23.87
40.41
56.13
67.87
73.40
71.97
64.30
51.97
36.73
20.11
3.41
-12.14
-25.14
-34.36
-39.26
-40.49
-39.90
-39.87
-42.14
-46.94
-52.74
-56.93
-57.20
-52.62
-44.05
-33.58
-23.49
-15.24
-9.05
-4.29
-0.09
4.03
8.06
11.74
14.91
17.74
20.78
24.66
29.77
36.13
43.21
50.17
56.18
60.68
63.56
65.08
65.61
65.32
64.15
61.89
58.53
54.56
50.88
48.62
48.60
51.02
55.38
60.71
65.96
70.29
73.24
74.56
74.24
72.40
69.35
65.59
61.76
58.46
56.05
54.56
53.71
53.06
52.22
51.00
49.43
47.77
46.41
45.71
45.79
46.38
46.75
45.97
43.21
38.13
30.96
22.37
13.05
3.43
-6.42
-16.55
-26.80
-36.54
-44.79
-50.63
-53.59
-53.96
-52.66
-50.83
-49.42
-48.83
-48.91
-49.15
-48.96
-47.91
-45.75
-42.49
-38.26
-33.23
-27.60
-21.55
-15.30
-9.14
-3.47
1.28
4.70
6.55
6.87
5.99
4.41
2.61
0.84
-0.86
-2.63
-4.54
-6.53
-8.32
-9.69
-10.58
-11.24
-12.08
-13.44
-15.47
-17.99
-20.66
-23.07
-24.97
-26.23
-26.95
-27.40
-27.96
-29.16
-31.41
-34.88
-39.36
-44.30
-49.02
-52.89
-55.56
-56.88
-56.89
-55.66
-53.34
-50.14
-46.41
-42.52
-38.78
-35.29
-31.89
-28.32
-24.39
-20.10
-15.71
-11.60
-8.06
-5.21
-2.95
-1.06
0.64
2.20
3.53
4.49
5.00
5.14
5.07
5.02
5.10
5.25
5.27
4.89
3.94
2.40
0.47
-1.57
-3.41
-4.83
-5.75
-6.18
-6.19
-5.82
-5.12
-4.09
-2.78
-1.21
0.53
2.37
4.21
5.98
7.61
9.09
10.39
11.55
12.59
13.54
14.39
15.12
15.63
15.87
15.76
15.27
14.42
13.24
11.83
10.32
8.84
7.50
6.40
5.58
5.01
4.61
4.18
3.52
2.45
0.97
-0.73
-2.30
-3.32
-3.54
-2.92
-1.65
-0.09
1.47
2.83
4.02
5.17
6.46
7.97
9.65
11.28
12.53
13.10
12.87
11.98
10.81
9.83
9.36
9.47
9.96
10.49
10.78
10.70
10.31
9.71
8.98
8.10
7.00
5.66
4.10
2.43
0.78
-0.78
-2.23
-3.61
-4.93
-6.11
-6.98
-7.35
-7.10
-6.18
-4.71
-2.82
-0.69
1.56
3.84
6.04
8.05
9.71
10.90
11.58
11.84
11.86
11.86
11.99
12.32
12.86
13.52
14.17
14.55
14.43
13.62
12.11
10.10
7.94
5.98
4.46
3.41
2.68
2.07
1.45
0.76
0.05
-0.64
-1.30
-1.94
-2.61
-3.34
-4.12
-4.85
-5.38
-5.48
-4.98
-3.80
-2.01
0.16
2.45
4.65
6.67
8.50
10.16
11.62
12.83
13.78
14.52
15.19
15.97
17.00
18.28
19.73
21.18
22.43
23.33
23.82
23.87
23.53
22.88
21.99
21.00
19.99
19.05
18.18
17.21
15.77
13.26
9.01
2.42
-6.73
-18.12
-30.90
-43.87
-55.70
-65.23
-71.46
-73.63
-71.21
-64.01
-52.40
-37.51
-21.08
-5.16
8.42
18.51
24.82
27.80
28.23
26.94
24.60
21.73
18.77
16.14
14.18
13.05
12.63
12.59
12.44
11.74
10.18
7.69
4.39
0.60
-3.23
-6.61
-9.13
-10.60
-11.16
-11.24
-11.55
-12.77
-15.39
-19.48
-24.63
-29.97
-34.36
-36.66
-36.04
-32.13
-25.15
-15.85
-5.34
5.19
14.60
22.03
26.90
28.99
28.35
25.34
20.52
14.63
8.43
2.57
-2.56
-6.86
-10.62
-14.39
-18.86
-24.60
-31.87
-40.52
-50.01
-59.56
-68.08
-74.13
-75.96
-71.81
-60.62
-42.79
-20.47
2.87
23.58
39.15
49.01
54.29
56.89
58.35
59.26
59.40
58.46
56.52
54.10
51.78
49.68
47.32
43.93
39.01
32.63
25.51
18.70
13.15
9.37
7.42
7.07
7.89
9.53
11.68
14.16
16.73
19.13
20.98
21.83
21.30
19.19
15.70
11.40
7.13
3.76
1.81
1.36
1.92
2.71
2.87
1.83
-0.58
-4.10
-8.14
-12.06
-15.29
-17.54
-18.79
-19.23
-19.11
-18.67
-17.99
-17.06
-15.86
-14.45
-12.92
-11.41
-9.97
-8.60
-7.25
-5.88
-4.60
-3.58
-3.01
-3.02
-3.60
-4.59
-5.76
-6.88
-7.84
-8.64
-9.38
-10.28
-11.46
-12.94
-14.56
-15.99
-16.94
-17.20
-16.88
-16.28
-15.83
-15.79
-16.18
-16.77
-17.20
-17.21
-16.68
-15.68
-14.37
-12.83
-11.07
-9.04
-6.70
-4.11
-1.43
1.17
3.61
5.89
8.10
10.30
12.43
14.35
15.82
16.69
16.95
16.69
16.10
15.34
14.50
13.64
12.81
12.06
11.42
10.89
10.40
9.91
9.44
9.09
8.98
9.10
9.34
9.44
9.11
8.17
6.56
4.34
1.70
-1.12
-3.77
-5.92
-7.26
-7.56
-6.83
-5.21
-3.02
-0.60
1.75
3.78
5.35
6.40
6.93
7.01
6.68
5.99
4.99
3.76
2.41
1.04
-0.23
-1.38
-2.38
-3.29
-4.12
-4.82
-5.33
-5.58
-5.55
-5.30
-4.93
-4.60
-4.42
-4.53
-4.96
-5.69
-6.63
-7.65
-8.71
-9.80
-10.93
-12.11
-13.31
-14.46
-15.51
-16.47
-17.36
-18.12
-18.58
-18.46
-17.52
-15.66
-13.10
-10.12
-7.12
-4.42
-2.14
-0.18
1.75
3.91
6.43
9.25
12.36
15.69
19.06
22.25
25.07
27.54
29.89
32.41
35.29
38.77
42.51
45.57
46.64
44.69
39.44
31.47
21.96
12.41
5.28
2.39
4.22
9.82
17.43
25.20
31.54
35.40
36.46
37.28
40.35
46.74
55.65
65.46
74.73
82.46
87.95
90.66
93.50
98.57
105.65
112.52
117.18
119.56
121.21
124.27
130.39
144.51
169.19
202.72
239.55
273.39
299.55
315.48
320.42
290.35
216.30
110.09
-0.59
-91.50
-153.69
-190.97
-212.11
-224.14
-232.65
-234.64
-226.15
-206.23
-178.19
-147.14
-117.30
-91.05
-69.91
-54.51
-41.18
-26.86
-11.15
3.57
14.36
19.85
20.49
17.74
13.05
9.35
7.75
6.87
3.66
-4.59
-18.73
-37.69
-59.23
-80.76
-98.98
-111.96
-119.77
-124.24
-127.74
-131.98
-137.44
-143.43
-148.55
-150.91
-149.25
-143.52
-134.73
-124.47
-114.24
-105.08
-97.43
-91.11
-85.45
-79.63
-72.96
-65.06
-55.93
-45.91
-35.54
-25.43
-16.23
-8.56
-3.00
0.09
0.60
-1.25
-5.02
-10.25
-16.63
-23.94
-31.91
-40.06
-47.66
-53.99
-58.63
-61.67
-63.61
-64.91
-65.62
-65.19
-62.72
-57.53
-49.66
-39.97
-29.83
-20.49
-12.57
-5.92
0.14
6.29
12.80
19.34
25.23
29.93
33.21
35.27
36.55
37.56
38.65
40.05
41.67
43.46
45.45
47.65
49.92
51.84
52.97
52.79
51.21
48.38
44.97
42.14
40.91
42.03
45.64
51.67
59.60
69.03
79.18
89.23
98.42
105.77
110.65
112.78
112.76
111.30
112.31
118.51
130.08
144.40
157.79
168.41
174.09
176.70
177.90
178.60
178.21
175.22
170.92
165.56
159.32
152.22
144.54
136.32
127.78
118.92
109.61
99.58
87.95
73.81
56.32
35.37
11.27
-15.13
-43.03
-71.99
-102.00
-133.88
-168.55
-207.01
-250.12
-298.84
-353.44
-412.52
-471.97
-524.79
-562.78
-578.80
-569.29
-535.08
-480.66
-411.85
-333.89
-250.89
-166.68
-86.34
-16.44
35.97
65.67
71.16
55.35
24.65
-13.13
-50.71
-82.67
-106.12
-120.81
-128.54
-132.18
-134.33
-135.99
-136.08
-132.19
-121.73
-103.39
-78.08
-48.86
-20.10
3.66
18.58
22.05
13.05
-7.06
-34.09
-61.42
-81.34
-87.05
-74.46
-43.11
3.97
60.90
121.08
178.52
228.45
267.57
294.04
307.66
309.94
303.94
292.73
280.76
273.47
275.74
289.81
314.32
344.83
375.29
399.79
411.60
407.84
390.36
363.74
332.06
297.42
260.38
220.90
179.11
131.49
77.17
19.06
-38.37
-92.68
-144.47
-195.82
-248.64
-303.93
-366.44
-436.30
-506.96
-567.83
-609.83
-628.44
-623.79
-599.77
-529.49
-411.18
-270.69
-143.78
-50.61
8.81
44.73
68.60
88.92
109.83
126.69
135.86
138.42
139.34
143.03
150.50
159.92
168.09
171.10
161.54
135.58
94.81
44.38
-10.42
-65.32
-116.61
-157.28
-179.74
-180.86
-160.53
-121.73
-70.78
-16.73
31.20
66.74
88.05
96.41
93.19
80.33
60.28
36.18
11.67
-9.24
-22.58
-25.45
-17.59
-2.05
16.40
33.27
45.93
54.11
59.39
64.01
69.54
75.75
80.91
82.84
80.16
72.99
62.87
51.92
41.81
33.03
24.67
15.11
3.07
-11.50
-27.01
-40.59
-49.10
-50.24
-43.40
-29.94
-12.70
4.96
20.19
31.23
37.52
39.45
38.07
34.72
30.89
27.85
26.41
26.64
27.84
28.91
28.85
27.23
24.39
21.10
18.12
15.82
14.07
12.46
10.68
8.62
6.43
4.25
2.07
-0.28
-3.00
-6.22
-9.89
-13.83
-17.79
-21.44
-24.25
-25.42
-23.98
-19.13
-10.73
0.36
12.36
22.98
30.24
33.04
31.57
27.02
21.16
15.71
11.95
10.56
11.60
14.62
18.79
22.99
26.06
27.08
25.67
22.11
17.38
12.73
9.27
7.58
7.48
8.25
9.00
9.23
9.15
9.85
12.90
19.75
31.07
46.15
62.88
78.10
88.51
91.60
86.48
74.01
56.37
36.31
16.28
-1.98
-17.45
-29.60
-38.28
-43.69
-46.59
-48.20
-49.95
-52.89
-57.21
-62.16
-66.37
-68.51
-67.78
-64.11
-58.06
-50.55
-42.64
-35.28
-29.23
-24.85
-22.09
-20.51
-19.56
-18.83
-18.17
-17.62
-17.04
-15.87
-13.16
-7.79
0.97
12.99
27.09
41.13
52.59
59.23
59.70
53.95
43.32
30.10
17.02
6.61
0.67
0.02
4.44
12.82
23.36
33.90
42.21
46.48
45.74
40.16
31.05
20.53
10.92
4.18
1.41
2.73
7.45
14.39
22.25
29.84
36.24
40.89
43.57
44.42
43.80
42.14
39.81
36.97
33.64
29.87
25.89
22.27
19.71
18.86
20.04
23.09
27.62
33.20
39.65
47.08
55.76
65.90
77.48
90.32
104.19
119.06
135.10
152.49
171.12
190.39
209.25
226.63
241.97
255.56
268.63
282.92
299.95
320.19
342.41
363.63
379.64
386.12
379.86
359.74
326.93
284.50
236.44
186.71
138.47
93.86
54.01
19.21
-11.09
-38.17
-63.89
-90.17
-118.39
-148.92
-180.96
-213.10
-244.03
-273.20
-301.49
-331.18
-365.67
-408.11
-459.60
-517.37
-574.10
-619.02
-640.74
-631.19
-588.77
-519.46
-435.20
-350.38
-277.97
-226.59
-199.36
-194.25
-205.73
-226.49
-249.07
-267.05
-275.90
-273.63
-260.95
-240.84
-217.32
-194.66
-176.05
-162.74
-153.91
-147.07
-139.60
-129.96
-118.41
-106.07
-94.65
-85.47
-78.74
-73.42
-67.03
-57.08
-42.08
-21.88
3.36
31.99
60.70
85.61
103.78
115.73
124.30
133.28
146.08
166.22
194.68
229.20
265.55
299.08
328.08
352.11
370.96
384.76
396.30
408.40
421.88
435.47
446.11
452.57
453.48
446.76
417.88
362.01
288.19
213.63
157.07
115.84
83.89
55.40
25.72
-6.94
-39.94
-69.17
-94.00
-116.52
-140.40
-166.40
-194.68
-227.37
-265.69
-307.20
-346.37
-380.27
-407.19
-426.09
-433.36
-426.70
-409.05
-385.26
-358.82
-329.65
-300.24
-273.06
-249.68
-227.32
-188.50
-128.51
-56.00
5.30
55.40
98.38
138.41
175.13
210.36
246.47
283.47
322.13
364.35
414.74
470.55
523.63
562.88
582.39
581.00
560.08
524.66
468.81
399.78
329.67
277.23
239.82
211.92
188.53
166.71
144.74
121.94
101.08
82.32
64.14
43.87
22.40
1.62
-17.51
-35.01
-51.34
-65.14
-76.72
-87.40
-99.20
-111.38
-122.37
-131.18
-137.83
-142.96
-146.43
-149.13
-152.70
-159.25
-168.94
-180.72
-192.61
-202.11
-206.46
-202.90
-190.31
-169.77
-144.45
-117.95
-93.70
-74.25
-60.88
-53.54
-51.08
-52.16
-55.83
-61.56
-68.88
-77.24
-85.98
-94.55
-102.82
-111.15
-120.12
-129.85
-139.38
-146.61
-149.08
-145.25
-135.60
-122.81
-110.94
-103.80
-103.55
-110.07
-121.30
-134.28
-146.18
-155.02
-159.75
-159.98
-155.80
-147.54
-135.83
-121.53
-105.64
-89.12
-72.77
-57.04
-42.09
-27.95
-14.56
-1.92
9.91
20.92
31.13
40.68
49.70
58.25
66.26
73.57
79.93
85.05
88.63
90.38
89.97
87.13
81.65
73.52
62.91
50.29
36.42
22.31
8.95
-2.94
-13.25
-22.50
-31.64
-41.40
-51.86
-62.19
-70.95
-76.80
-79.12
-78.34
-75.70
-72.54
-69.78
-67.55
-65.27
-62.10
-57.20
-49.84
-39.41
-25.50
-8.06
12.18
33.56
53.71
70.20
81.32
86.66
87.09
84.18
79.56
74.30
68.87
63.41
58.05
53.04
48.56
44.44
40.08
34.76
28.16
20.70
13.64
8.51
6.51
7.83
11.55
15.99
19.32
20.16
17.98
13.31
7.68
3.64
4.26
12.38
29.48
54.72
84.72
114.49
139.13
155.63
163.77
165.83
165.06
164.21
164.50
165.62
166.48
166.07
163.84
159.50
152.83
143.39
130.92
115.67
98.69
81.58
65.93
52.76
42.06
33.05
24.59
15.87
6.73
-2.28
-10.21
-16.37
-20.77
-24.54
-29.81
-39.17
-54.87
-77.94
-107.54
-140.78
-173.34
-200.56
-218.84
-226.82
-225.67
-218.35
-207.99
-196.34
-182.73
-164.37
-137.64
-99.88
-50.72
7.39
69.63
129.75
181.06
217.50
234.43
229.53
203.59
160.67
107.42
51.59
0.21
-42.02
-73.31
-94.34
-107.20
-114.28
-117.66
-119.00
-119.70
-120.79
-122.72
-124.87
-125.73
-123.42
-116.63
-105.26
-90.50
-74.12
-57.63
-41.91
-27.43
-15.06
-6.59
-4.66
-11.82
-29.22
-55.76
-88.14
-121.94
-153.18
-179.69
-201.56
-220.58
-238.82
-257.14
-274.33
-287.27
-292.29
-286.83
-270.67
-246.13
-217.12
-187.55
-159.99
-135.09
-112.08
-89.72
-67.31
-44.97
-23.41
-3.23
15.62
33.99
53.25
74.97
100.60
131.30
167.54
208.67
252.41
294.61
329.76
352.01
356.60
341.05
305.72
253.68
189.94
120.42
51.01
-13.36
-69.14
-114.36
-148.37
-171.31
-183.58
-185.56
-177.55
-159.97
-133.60
-99.72
-60.35
-18.28
22.86
58.95
85.95
100.79
102.12
90.78
69.69
43.28
16.71
-5.04
-17.91
-19.44
-9.23
10.89
37.17
65.01
90.26
110.64
126.26
139.36
153.04
169.72
189.88
211.88
232.88
250.40
263.58
273.38
281.65
289.54
296.44
300.07
297.44
286.28
265.80
236.67
200.47
159.19
115.24
71.60
31.77
-1.11
-25.52
-42.68
-56.55
-72.53
-95.43
-127.58
-168.10
-213.33
-258.19
-297.60
-327.46
-345.14
-349.52
-340.76
-320.20
-289.88
-251.96
-208.20
-159.90
-108.38
-55.96
-6.35
35.72
65.96
82.11
84.74
76.75
61.75
42.37
19.61
-6.58
-35.54
-64.91
-90.61
-108.09
-114.00
-107.58
-91.04
-68.57
-44.71
-22.69
-3.80
12.57
28.15
45.22
66.09
92.51
125.00
161.89
199.21
230.38
247.54
244.29
218.54
174.00
119.14
64.21
17.94
-13.41
-28.10
-28.40
-18.57
-2.65
16.64
37.33
57.25
74.32
89.92
106.01
123.80
143.16
163.61
184.77
206.12
226.05
242.58
257.69
271.98
283.00
286.42
280.05
266.24
250.97
240.10
237.87
250.88
281.33
326.13
378.53
432.67
485.43
535.17
578.68
572.79
491.83
343.21
166.24
3.52
-121.27
-204.68
-251.26
-277.91
-295.88
-305.66
-306.26
-299.87
-293.36
-291.43
-296.78
-309.22
-327.73
-350.03
-370.16
-384.75
-395.52
-408.99
-431.78
-466.50
-509.69
-553.29
-586.08
-595.69
-575.48
-527.38
-460.87
-387.69
-317.04
-253.18
-196.67
-145.83
-98.23
-53.24
-12.05
23.60
54.02
82.40
113.85
152.66
200.51
255.20
310.15
356.05
382.81
383.66
357.08
306.58
238.81
162.45
87.38
24.13
-17.99
-35.15
-29.18
-7.30
19.85
41.81
52.84
53.91
51.03
50.49
52.14
51.98
45.79
31.86
11.42
-11.92
-34.63
-55.69
-78.16
-111.14
-161.08
-226.59
-298.27
-363.11
-408.87
-428.51
-421.97
-374.35
-288.45
-185.03
-89.37
-13.96
43.01
89.18
129.37
166.97
202.42
233.63
262.64
296.28
342.50
399.65
459.73
509.91
537.96
536.94
505.63
451.70
388.78
330.27
283.37
248.13
219.45
191.23
158.89
118.91
70.63
16.24
-39.72
-91.43
-132.05
-155.70
-159.75
-147.23
-127.57
-112.57
-111.38
-126.66
-153.93
-183.58
-205.31
-212.09
-202.10
-178.25
-145.36
-107.83
-68.69
-30.18
5.59
36.12
58.92
72.25
76.12
72.47
64.67
56.38
50.31
47.43
46.93
46.72
44.53
38.81
29.23
16.52
1.98
-13.11
-27.99
-42.46
-56.81
-71.48
-86.75
-102.57
-118.40
-133.36
-146.43
-156.90
-164.60
-170.12
-174.63
-179.41
-185.43
-192.91
-201.24
-209.19
-215.22
-217.95
-216.36
-209.84
-197.97
-180.36
-156.59
-126.80
-92.28
-56.11
-23.10
1.14
11.75
5.96
-16.40
-53.19
-101.12
-156.56
-215.72
-274.20
-326.55
-366.53
-388.45
-388.96
-368.44
-331.02
-283.22
-231.67
-181.22
-134.02
-89.87
-47.29
-4.56
39.66
86.08
134.64
184.33
233.00
277.37
313.76
339.08
352.08
353.84
347.51
337.25
326.80
318.51
313.07
310.13
309.16
310.10
313.42
319.64
328.55
338.70
347.34
350.90
346.03
330.40
303.42
266.36
221.99
173.63
124.43
76.65
31.00
-12.93
-56.63
-102.38
-152.74
-209.74
-273.61
-341.33
-406.31
-459.69
-493.19
-502.80
-490.98
-466.05
-438.94
-418.68
-409.14
-408.46
-411.23
-411.69
-406.41
-394.78
-378.00
-357.42
-333.49
-305.82
-273.99
-238.35
-200.32
-162.38
-127.17
-96.43
-70.58
-47.93
-25.16
1.67
36.14
80.51
134.74
196.05
258.72
314.71
355.45
373.78
366.19
334.14
284.24
226.31
170.46
124.24
91.06
70.96
61.42
59.02
61.19
67.66
80.13
100.51
128.40
159.31
186.04
198.96
188.79
150.51
86.93
8.96
-68.11
-130.20
-169.15
-181.32
-169.92
-143.45
-112.48
-84.71
-62.89
-45.97
-31.26
-15.88
8.38
49.03
108.45
181.31
256.89
322.70
367.79
386.19
379.12
361.78
352.84
365.36
402.13
458.72
527.67
600.43
668.03
681.44
609.04
458.97
276.51
108.53
-20.85
-108.93
-164.33
-198.33
-220.68
-231.48
-228.97
-215.50
-199.47
-189.92
-191.25
-202.30
-218.10
-232.71
-237.00
-225.26
-198.63
-164.94
-133.66
-111.20
-99.90
-97.32
-100.86
-106.00
-109.46
-110.88
-112.45
-115.90
-120.04
-121.42
-116.07
-95.80
-59.22
-13.99
28.00
58.54
76.56
86.42
93.68
103.07
117.17
136.06
158.15
180.69
199.55
209.60
206.90
189.97
161.74
128.17
94.98
66.17
42.93
23.61
4.26
-14.46
-33.51
-53.32
-74.18
-97.03
-122.71
-151.21
-181.59
-212.35
-242.06
-270.42
-297.35
-322.63
-345.16
-361.90
-368.04
-358.45
-330.09
-283.48
-223.43
-156.83
-90.73
-30.95
18.57
55.43
78.29
86.71
81.37
63.61
35.49
-1.03
-44.72
-94.85
-150.43
-209.20
-267.29
-319.86
-362.59
-393.06
-411.46
-420.42
-423.61
-424.03
-422.47
-417.28
-405.26
-383.72
-352.07
-312.49
-268.97
-225.25
-182.88
-140.54
-94.86
-42.11
19.86
89.62
161.29
225.17
270.31
288.79
279.73
250.96
217.01
194.05
194.14
221.39
271.41
333.88
396.21
446.77
476.80
481.46
460.45
418.34
363.89
307.97
260.17
225.80
204.73
192.35
182.18
168.41
147.72
119.69
86.24
50.83
17.50
-9.94
-28.80
-37.81
-37.35
-28.93
-14.48
4.26
26.05
49.78
73.97
96.39
114.32
125.22
127.75
122.38
111.36
98.06
85.77
76.67
71.02
67.28
62.77
54.85
42.14
25.19
6.34
-11.16
-24.27
-31.21
-31.98
-28.02
-21.48
-14.40
-8.19
-3.67
-1.39
-2.01
-6.31
-14.72
-26.75
-40.49
-52.78
-60.16
-60.22
-52.80
-40.36
-27.10
-17.43
-14.15
-17.42
-24.91
-32.94
-37.96
-37.76
-31.80
-21.02
-7.22
7.02
18.45
23.42
18.93
4.24
-17.81
-40.64
-55.78
-56.05
-38.62
-6.33
33.42
71.90
102.25
121.54
130.46
131.47
126.82
117.62
104.29
87.66
69.73
53.21
40.28
31.31
24.50
16.73
5.28
-10.61
-29.18
-46.90
-60.06
-66.40
-65.94
-60.82
-54.10
-48.50
-45.46
-44.95
-46.03
-47.55
-48.79
-49.70
-50.67
-52.22
-54.84
-58.67
-63.56
-68.92
-73.66
-76.28
-75.24
-69.54
-59.24
-45.60
-30.85
-17.36
-6.80
0.46
5.44
10.08
16.46
26.03
38.93
53.85
68.38
79.80
86.20
87.36
85.13
83.03
84.86
93.24
108.35
127.64
146.84
161.55
168.80
167.92
160.33
148.55
135.00
121.31
108.09
95.27
82.54
69.70
56.80
44.13
32.24
22.00
14.68
11.71
14.24
22.42
34.81
48.35
58.85
62.30
56.10
39.96
16.05
-11.74
-38.83
-61.14
-75.77
-81.45
-78.48
-68.59
-54.42
-38.98
-24.87
-13.84
-6.58
-2.91
-2.15
-3.53
-6.32
-9.83
-13.41
-16.52
-18.94
-20.84
-22.72
-25.21
-28.74
-33.35
-38.66
-44.03
-48.75
-52.25
-54.23
-54.58
-53.41
-50.98
-47.58
-43.53
-39.13
-34.61
-30.15
-25.92
-22.17
-19.27
-17.78
-18.27
-21.18
-26.55
-33.86
-42.07
-49.83
-55.82
-59.06
-59.16
-56.42
-51.86
-47.13
-44.14
-44.58
-49.26
-57.70
-68.15
-78.11
-85.25
