1532335511.00
64.000000
-0.00
-0.00
-0.00
-0.00
-0.00
-0.00
-0.00
-0.00
-0.00
-0.00
0.00
0.01
0.01
-0.00
-0.03
-0.05
-0.05
0.00
0.13
0.36
0.66
1.01
1.37
1.72
2.06
2.40
2.79
3.24
3.80
4.42
5.06
5.66
6.20
6.68
7.15
7.68
8.31
9.14
10.09
11.04
11.88
12.56
13.14
13.76
14.65
15.96
17.91
20.32
22.90
25.38
27.58
29.57
31.68
34.32
37.81
42.54
48.15
54.10
59.83
64.97
69.58
74.14
79.34
85.71
93.76
103.00
112.62
121.73
129.77
136.75
143.30
150.75
157.77
166.64
177.95
191.79
206.97
220.57
228.25
225.36
208.53
176.87
132.76
80.05
23.07
-34.94
-92.44
-149.16
-205.23
-260.37
-313.74
-363.87
-409.83
-450.91
-486.50
-515.74
-537.23
-549.22
-549.96
-538.37
-514.21
-478.67
-433.88
-382.45
-327.02
-269.84
-212.63
-156.66
-102.95
-52.37
-5.90
35.58
71.43
101.35
125.50
144.38
158.69
169.15
176.37
180.75
182.58
182.07
179.51
175.23
169.65
163.17
156.15
148.82
141.32
133.72
126.04
118.31
110.60
102.98
95.55
88.38
81.50
74.92
68.64
62.64
56.91
51.45
46.30
41.46
36.97
32.84
29.03
25.52
22.25
19.17
16.29
13.63
11.25
9.20
7.49
6.09
4.89
3.75
2.58
1.34
0.12
-0.95
-1.72
-2.14
-2.27
-2.33
-2.58
-3.20
-4.23
-5.47
-6.62
-7.38
-7.60
-7.39
-7.10
-7.16
-7.87
-9.26
-11.05
-12.75
-13.93
-14.38
-14.23
-13.86
-13.69
-14.10
-15.30
-17.45
-20.51
-24.05
-27.03
-27.91
-25.14
-17.94
-6.94
5.88
17.86
26.73
31.52
32.70
31.68
29.87
28.01
26.14
23.97
21.40
18.76
16.66
15.58
15.49
15.94
16.29
15.97
14.88
13.29
11.72
10.62
10.18
10.30
10.65
10.89
10.83
10.53
10.23
10.18
10.57
11.50
12.88
14.50
16.10
17.39
18.16
18.28
17.70
16.44
14.54
12.03
9.06
5.67
2.10
-1.24
-3.94
-5.72
-6.57
-6.74
-6.67
-6.78
-7.31
-8.26
-9.41
-10.51
-11.37
-11.94
-12.28
-12.45
-12.51
-12.42
-12.13
-11.62
-10.86
-9.90
-8.80
-7.64
-6.52
-5.56
-4.84
-4.41
-4.19
-4.10
-4.01
-3.86
-3.65
-3.41
-3.14
-2.83
-2.47
-2.02
-1.54
-1.13
-0.89
-0.88
-1.03
-1.22
-1.31
-1.24
-1.02
-0.68
-0.28
0.16
0.64
1.09
1.41
1.47
1.18
0.52
-0.35
-1.25
-2.02
-2.63
-3.17
-3.84
-4.69
-5.75
-6.99
-8.33
-9.64
-10.83
-11.81
-12.56
-13.17
-13.81
-14.75
-16.18
-18.12
-20.30
-22.22
-23.27
-22.96
-21.04
-17.63
-13.06
-7.78
-2.27
3.07
7.81
11.58
14.05
15.01
14.51
12.90
10.81
9.00
8.23
9.01
11.51
15.59
20.89
27.00
33.61
40.57
47.88
55.63
63.83
72.21
80.09
86.26
89.07
86.74
77.89
62.11
40.35
14.92
-10.98
-34.10
-52.03
-63.82
-70.03
-72.23
-72.26
-71.49
-70.62
-69.73
-68.76
-67.83
-67.26
-67.37
-68.22
-69.44
-70.46
-70.78
-70.32
-69.49
-68.91
-69.13
-70.34
-72.31
-74.47
-76.09
-76.49
-75.21
-72.05
-67.04
-60.25
-51.76
-41.65
-30.09
-17.51
-4.67
7.51
18.16
26.70
32.97
37.18
39.69
40.93
41.39
41.60
42.18
43.65
46.21
49.64
53.33
56.60
58.92
60.10
60.24
59.53
58.07
55.86
52.83
48.93
44.23
38.89
33.11
27.13
21.21
15.64
10.74
6.72
3.68
1.56
0.23
-0.43
-0.48
0.06
1.14
2.56
4.00
5.08
5.48
5.04
3.73
1.67
-1.07
-4.51
-8.80
-14.15
-20.78
-28.70
-37.57
-46.64
-54.79
-60.76
-63.52
-62.51
-57.86
-50.29
-40.83
-30.57
-20.31
-10.53
-1.42
6.92
14.32
20.56
25.37
28.60
30.31
30.84
30.69
30.41
30.38
30.76
31.49
32.38
33.32
34.30
35.41
36.69
38.05
39.25
40.02
40.12
39.51
38.30
36.68
34.83
32.87
30.84
28.75
26.60
24.39
22.13
19.86
17.64
15.56
13.70
12.12
10.80
9.67
8.63
7.57
6.40
5.10
3.64
2.05
0.33
-1.54
-3.57
-5.84
-8.40
-11.30
-14.50
-17.88
-21.29
-24.59
-27.80
-31.10
-34.79
-39.10
-43.96
-48.90
-53.06
-55.43
-55.18
-51.87
-45.57
-36.85
-26.54
-15.60
-4.90
4.80
12.99
19.39
23.96
26.81
28.19
28.41
27.81
26.80
25.81
25.20
25.22
25.85
26.90
28.05
29.03
29.69
30.04
30.18
30.21
30.13
29.91
29.41
28.51
27.12
25.25
23.02
20.62
18.26
16.03
13.91
11.79
9.53
7.08
4.49
1.85
-0.72
-3.19
-5.57
-7.86
-10.07
-12.13
-14.03
-15.76
-17.40
-19.12
-21.13
-23.64
-26.83
-30.71
-35.05
-39.32
-42.78
-44.60
-44.08
-40.88
-35.07
-27.19
-18.04
-8.58
0.39
8.27
14.76
19.79
23.39
25.58
26.38
25.85
24.23
22.00
19.80
18.29
17.86
18.53
19.98
21.66
23.05
23.80
23.84
23.27
22.23
20.83
19.08
16.97
14.52
11.80
8.99
6.25
3.70
1.33
-0.93
-3.17
-5.44
-7.72
-9.93
-12.03
-14.06
-16.14
-18.46
-21.14
-24.18
-27.41
-30.55
-33.38
-35.80
-37.95
-40.17
-42.81
-46.11
-50.03
-54.26
-58.21
-61.12
-62.25
-60.93
-56.81
-49.96
-40.84
-30.22
-18.90
-7.53
3.53
14.16
24.32
33.90
42.62
50.07
55.88
59.89
62.23
63.32
63.76
64.08
64.59
65.30
65.93
66.09
65.47
63.94
61.62
58.75
55.55
52.16
48.62
44.94
41.11
37.17
33.13
29.00
24.79
20.49
16.14
11.83
7.62
3.57
-0.33
-4.13
-7.86
-11.52
-15.04
-18.30
-21.25
-23.99
-26.69
-29.63
-33.04
-36.96
-41.26
-45.71
-50.07
-54.29
-58.44
-62.74
-67.34
-72.36
-77.80
-83.55
-89.29
-94.33
-97.53
-97.42
-92.70
-82.76
-68.09
-50.26
-31.43
-13.62
1.90
14.79
25.42
34.33
41.83
47.87
52.15
54.50
55.08
54.40
53.11
51.71
50.43
49.20
47.89
46.48
45.14
44.13
43.61
43.47
43.32
42.67
41.14
38.68
35.51
32.02
28.57
25.36
22.47
19.85
17.42
15.09
12.78
10.41
7.94
5.41
2.99
0.93
-0.48
-1.20
-1.44
-1.82
-3.09
-5.94
-10.61
-16.81
-23.73
-30.35
-35.82
-39.69
-42.09
-43.56
-44.80
-46.43
-48.78
-51.80
-55.00
-57.57
-58.52
-56.93
-52.26
-44.51
-34.24
-22.51
-10.54
0.50
9.75
16.72
21.31
23.73
24.36
23.68
22.16
20.22
18.26
16.62
15.60
15.42
16.14
17.68
19.80
22.20
24.65
26.94
28.99
30.69
31.94
32.65
32.78
32.39
31.64
30.67
29.61
28.49
27.25
25.82
24.18
22.36
20.44
18.54
16.69
14.89
13.09
11.21
9.22
7.12
4.91
2.54
-0.13
-3.27
-6.99
-11.24
-15.80
-20.29
-24.37
-27.78
-30.53
-32.81
-34.98
-37.40
-40.39
-44.12
-48.55
-53.42
-58.15
-61.92
-63.78
-62.93
-58.95
-52.04
-42.98
-32.92
-23.03
-14.15
-6.65
-0.50
4.60
8.93
12.67
15.85
18.49
20.58
22.20
23.47
24.53
25.54
26.58
27.71
28.94
30.25
31.56
32.83
33.97
34.87
35.42
35.46
34.87
33.57
31.63
29.19
26.51
23.86
21.50
19.56
18.06
16.88
15.84
14.79
13.69
12.60
11.61
10.76
9.97
9.08
7.94
6.54
5.00
3.54
2.33
1.38
0.54
-0.46
-1.83
-3.65
-5.80
-8.04
-10.12
-11.92
-13.51
-15.08
-16.90
-19.10
-21.65
-24.30
-26.75
-28.74
-30.25
-31.46
-32.68
-34.25
-36.35
-39.02
-42.11
-45.38
-48.45
-50.77
-51.71
-50.57
-46.87
-40.52
-31.95
-22.03
-11.82
-2.31
5.88
12.48
17.52
21.13
23.41
24.44
24.33
23.31
21.80
20.26
19.09
18.47
18.37
18.60
19.01
19.56
20.31
21.34
22.58
23.85
24.86
25.35
25.26
24.67
23.81
22.87
21.99
21.21
20.45
19.62
18.61
17.36
15.89
14.33
12.88
11.76
11.06
10.71
10.44
9.97
9.03
7.54
5.58
3.29
0.81
-1.86
-4.71
-7.79
-11.03
-14.31
-17.46
-20.36
-23.02
-25.55
-28.15
-31.03
-34.40
-38.38
-42.93
-47.83
-52.58
-56.45
-58.61
-58.30
-55.09
-49.03
-40.63
-30.77
-20.42
-10.49
-1.63
5.79
11.60
15.83
18.60
20.14
20.73
20.71
20.39
20.06
19.91
20.07
20.57
21.37
22.37
23.46
24.53
25.48
26.23
26.69
26.77
26.37
25.41
23.96
22.16
20.24
18.43
16.85
15.47
14.18
12.85
11.40
9.86
8.32
6.86
5.56
4.42
3.42
2.53
1.66
0.73
-0.36
-1.72
-3.36
-5.22
-7.15
-9.05
-10.86
-12.67
-14.61
-16.79
-19.20
-21.66
-23.96
-25.93
-27.56
-29.02
-30.62
-32.63
-35.17
-38.17
-41.26
-43.92
-45.48
-45.33
-42.99
-38.33
-31.56
-23.28
-14.32
-5.57
2.29
8.81
13.88
17.50
19.79
20.86
20.89
20.09
18.84
17.52
16.48
15.95
15.98
16.52
17.44
18.63
19.94
21.21
22.26
22.91
23.02
22.61
21.81
20.79
19.68
18.56
17.38
16.07
14.57
12.87
11.03
9.16
7.40
5.82
4.48
3.32
2.25
1.12
-0.15
-1.62
-3.23
-4.89
-6.52
-8.03
-9.47
-10.96
-12.69
-14.86
-17.56
-20.73
-24.12
-27.31
-29.84
-31.40
-31.92
-31.65
-31.11
-30.88
-31.34
-32.51
-33.99
-35.02
-34.81
-32.75
-28.61
-22.62
-15.31
-7.34
0.70
8.32
15.15
20.78
24.90
27.24
27.80
26.89
25.06
22.97
21.18
20.04
19.62
19.81
20.43
21.28
22.22
23.09
23.78
24.12
24.03
23.48
22.50
21.19
19.66
18.02
16.33
14.63
12.93
11.23
9.51
7.75
5.94
4.08
2.19
0.31
-1.52
-3.28
-5.00
-6.71
-8.48
-10.34
-12.29
-14.32
-16.42
-18.63
-21.02
-23.70
-26.72
-30.00
-33.36
-36.49
-39.11
-41.06
-42.40
-43.47
-44.80
-46.92
-50.11
-54.19
-58.34
-61.18
-61.11
-56.73
-47.41
-33.52
-16.40
1.98
19.62
34.92
46.95
55.44
60.59
62.77
62.47
60.20
56.53
52.19
47.94
44.50
42.34
41.57
41.91
42.85
43.78
44.26
44.06
43.15
41.51
39.06
35.69
31.34
26.21
20.76
15.62
11.30
8.01
5.62
3.79
2.14
0.47
-1.20
-2.72
-3.92
-4.69
-5.01
-4.87
-4.29
-3.35
-2.23
-1.22
-0.65
-0.76
-1.63
-3.14
-5.01
-6.91
-8.55
-9.82
-10.80
-11.61
-12.31
-12.87
-13.16
-13.07
-12.56
-11.68
-10.79
-10.29
-10.50
-11.40
-12.70
-14.00
-15.00
-15.65
-16.09
-16.85
-18.32
-20.38
-22.43
-23.75
-23.94
-23.10
-21.54
-19.40
-17.12
-14.89
-12.50
-9.46
-5.34
-0.26
5.18
10.10
13.66
14.09
9.94
0.84
-11.91
-25.80
-38.21
-47.17
-51.60
-51.27
-48.16
-45.04
-44.60
-48.64
-58.11
-73.50
-94.76
-120.64
-140.08
-142.84
-124.43
-89.68
-48.64
-9.87
22.40
47.46
66.68
81.86
92.96
99.37
100.97
99.04
95.78
93.21
92.17
92.94
95.07
96.77
96.28
92.70
86.54
79.08
71.47
63.30
54.56
44.90
33.40
19.55
3.69
-12.86
-28.53
-40.05
-48.10
-53.74
-58.16
-62.52
-67.33
-72.33
-76.44
-78.41
-77.49
-74.20
-69.66
-66.08
-66.17
-71.81
-82.25
-93.42
-98.77
-91.70
-69.19
-33.06
10.18
51.82
84.13
102.20
104.49
92.35
69.52
41.51
15.64
-0.85
-3.17
8.80
29.85
51.41
65.22
66.86
56.98
39.95
21.17
4.44
-8.78
-18.73
-26.02
-30.86
-33.18
-33.11
-31.45
-29.30
-28.22
-29.14
-31.93
-35.33
-37.43
-36.49
-31.91
-24.02
-14.42
-5.18
2.14
6.91
9.64
11.47
13.58
16.52
20.06
23.33
25.34
25.50
23.91
21.23
18.37
16.09
14.73
14.23
14.19
14.11
13.57
12.36
10.53
8.33
6.16
4.37
3.19
2.58
2.30
1.98
1.28
0.02
-1.79
-3.88
-5.77
-6.81
-6.35
-3.92
0.52
6.47
12.91
18.62
22.54
24.10
23.38
21.01
17.82
14.54
11.53
8.83
6.22
3.52
0.69
-2.14
-4.61
-6.33
-6.96
-6.36
-4.59
-1.88
1.45
5.20
9.12
12.98
16.57
19.63
21.80
22.70
22.09
20.12
17.33
14.53
12.48
11.59
11.72
12.29
12.61
12.15
10.79
8.82
6.73
5.02
3.89
3.26
2.81
2.15
1.09
-0.36
-1.97
-3.48
-4.73
-5.70
-6.56
-7.50
-8.67
-10.14
-11.93
-14.05
-16.51
-19.29
-22.27
-25.26
-27.99
-30.26
-31.97
-33.23
-34.32
-35.64
-37.65
-40.67
-44.75
-49.55
-54.21
-57.58
-58.47
-55.99
-49.88
-40.56
-29.02
-16.47
-4.12
7.09
16.53
23.86
28.91
31.76
32.65
32.05
30.56
28.80
27.27
26.27
25.87
26.05
26.74
27.88
29.40
31.19
33.10
34.89
36.33
37.23
37.51
37.14
36.18
34.72
32.90
30.92
28.98
27.28
25.86
24.65
23.46
22.03
20.22
18.01
15.52
13.00
10.69
8.71
7.08
5.68
4.35
2.95
1.39
-0.36
-2.25
-4.23
-6.24
-8.22
-10.12
-11.90
-13.56
-15.14
-16.70
-18.38
-20.28
-22.41
-24.75
-27.21
-29.69
-32.17
-34.64
-37.12
-39.70
-42.46
-45.51
-49.05
-53.28
-58.26
-63.70
-68.91
-72.73
-73.88
-71.33
-64.69
-54.41
-41.65
-27.94
-14.68
-2.88
6.95
14.75
20.63
24.80
27.45
28.87
29.41
29.43
29.26
29.10
29.03
29.11
29.43
30.14
31.37
33.15
35.33
37.59
39.58
40.97
41.58
41.35
40.34
38.65
36.47
34.02
31.56
29.31
27.39
25.72
24.11
22.39
20.47
18.47
16.66
15.32
14.58
14.35
14.38
14.31
13.87
12.93
11.55
9.91
8.19
6.50
4.81
2.97
0.80
-1.76
-4.62
-7.53
-10.21
-12.51
-14.46
-16.35
-18.48
-21.04
-23.98
-27.04
-29.93
-32.50
-34.85
-37.24
-39.95
-43.17
-46.96
-51.25
-55.82
-60.31
-64.09
-66.35
-66.24
-63.13
-56.85
-47.77
-36.72
-24.75
-12.93
-2.10
7.12
14.33
19.37
22.30
23.37
23.06
21.91
20.49
19.26
18.54
18.47
18.99
19.91
21.03
22.13
23.07
23.80
24.32
24.62
24.67
24.41
23.78
22.76
21.37
19.74
18.03
16.42
15.06
14.00
13.20
12.54
11.86
11.00
9.87
8.38
6.55
4.42
2.10
-0.29
-2.61
-4.73
-6.58
-8.13
-9.41
-10.51
-11.53
-12.59
-13.83
-15.32
-17.11
-19.17
-21.39
-23.60
-25.66
-27.56
-29.48
-31.85
-35.14
-39.72
-45.59
-52.20
-58.51
-63.10
-64.63
-62.16
-55.50
-45.32
-32.97
-20.08
-8.13
1.93
9.77
15.63
20.00
23.40
26.17
28.47
30.36
31.81
32.87
33.60
34.09
34.49
34.95
35.63
36.58
37.74
38.90
39.74
39.96
39.33
37.79
35.41
32.43
29.20
26.11
23.51
21.57
20.19
18.97
17.44
15.28
12.59
9.82
7.61
6.43
6.26
6.68
7.00
6.72
5.69
4.09
2.20
0.20
-1.99
-4.56
-7.57
-10.88
-14.15
-17.04
-19.48
-21.64
-23.95
-26.84
-30.54
-35.04
-39.98
-44.76
-48.60
-50.69
-50.34
-47.22
-41.42
-33.48
-24.25
-14.66
-5.51
2.64
9.48
14.86
18.73
21.06
21.90
21.39
19.81
17.72
15.79
14.77
15.22
17.33
20.80
24.97
29.01
32.20
34.22
35.04
34.93
34.17
32.95
31.31
29.27
26.91
24.48
22.31
20.72
19.77
19.31
18.98
18.41
17.34
15.65
13.34
10.39
6.75
2.46
-2.27
-6.98
-11.07
-14.11
-16.02
-17.26
-18.75
-21.65
-27.03
-35.54
-47.10
-60.81
-74.98
-87.47
-96.20
-99.71
-97.52
-90.21
-79.12
-65.91
-52.12
-38.89
-26.97
-16.81
-8.70
-2.78
1.04
3.11
4.04
4.53
5.22
6.52
8.57
11.29
14.47
17.85
21.18
24.22
26.80
28.82
30.29
31.27
31.84
32.03
31.79
31.06
29.88
28.40
26.89
25.56
24.42
23.30
21.88
19.91
17.35
14.42
11.49
8.89
6.78
5.00
3.21
1.03
-1.77
-5.21
-9.09
-13.11
-17.02
-20.67
-24.08
-27.34
-30.62
-34.13
-38.13
-42.79
-48.14
-53.84
-59.11
-62.81
-63.68
-60.75
-53.73
-43.09
-30.06
-16.21
-2.99
8.54
17.92
25.15
30.49
34.23
36.67
38.02
38.58
38.73
38.90
39.45
40.60
42.29
44.26
46.20
47.85
49.12
50.07
50.82
51.38
51.61
51.21
49.89
47.54
44.33
40.69
37.13
34.05
31.61
29.69
28.05
26.45
24.74
22.94
21.10
19.28
17.50
15.73
13.93
12.03
9.96
7.69
5.17
2.43
-0.48
-3.45
-6.40
-9.29
-12.08
-14.74
-17.23
-19.55
-21.72
-23.85
-26.09
-28.53
-31.21
-34.10
-37.22
-40.72
-44.82
-49.69
-55.18
-60.65
-65.01
-67.00
-65.57
-60.31
-51.55
-40.26
-27.76
-15.32
-3.91
5.93
13.97
20.18
24.62
27.37
28.60
28.63
27.99
27.27
27.01
27.50
28.70
30.33
32.09
33.75
35.32
36.87
38.47
39.99
41.15
41.59
41.10
39.68
37.55
35.06
32.57
30.29
28.26
26.42
24.61
22.75
20.80
18.85
17.04
15.50
14.26
13.23
12.24
11.05
9.49
7.50
5.19
2.75
0.41
-1.74
-3.73
-5.74
-7.98
-10.58
-13.59
-16.88
-20.31
-23.75
-27.13
-30.43
-33.66
-36.88
-40.19
-43.79
-47.84
-52.37
-57.07
-61.24
-63.92
-64.10
-61.08
-54.72
-45.50
-34.38
-22.53
-11.04
-0.69
8.07
15.08
20.35
23.93
25.94
26.58
26.19
25.26
24.35
23.89
24.13
25.01
26.28
27.66
28.94
30.08
31.11
32.01
32.70
32.98
32.71
31.85
30.49
28.83
27.03
25.17
23.21
21.11
18.90
16.70
14.66
12.91
11.46
10.23
9.13
8.12
7.21
6.46
5.89
5.41
4.89
4.18
3.22
2.05
0.82
-0.35
-1.37
-2.32
-3.33
-4.61
-6.31
-8.50
-11.11
-14.01
-17.05
-20.06
-22.96
-25.68
-28.24
-30.73
-33.34
-36.32
-39.91
-44.28
-49.22
-54.18
-58.23
-60.27
-59.37
-55.07
-47.55
-37.61
-26.39
-15.09
-4.69
4.21
11.33
16.65
20.26
22.27
22.88
22.36
21.18
19.85
18.92
18.71
19.33
20.63
22.32
24.14
25.93
27.65
29.28
30.74
31.88
32.46
32.35
31.53
30.11
28.32
26.42
24.58
22.89
21.36
19.90
18.40
16.81
15.10
13.34
11.61
10.00
8.58
7.34
6.20
5.06
3.81
2.38
0.75
-1.02
-2.80
-4.46
-5.92
-7.22
-8.49
-9.94
-11.72
-13.85
-16.24
-18.68
-20.99
-23.10
-25.09
-27.07
-29.19
-31.56
-34.23
-37.26
-40.69
-44.47
-48.36
-51.83
-54.11
-54.32
-51.77
-46.21
-37.99
-27.97
-17.32
-7.17
1.65
8.74
14.04
17.71
19.96
20.97
20.95
20.22
19.16
18.23
17.81
18.08
18.99
20.34
21.85
23.32
24.65
25.78
26.67
27.25
27.43
27.14
26.38
25.23
23.81
22.26
20.72
19.27
17.97
16.82
15.79
14.85
13.93
12.99
12.01
10.98
9.90
8.79
7.64
6.46
5.27
4.03
2.72
1.31
-0.21
-1.83
-3.52
-5.28
-7.12
-9.05
-11.08
-13.18
-15.32
-17.50
-19.74
-22.07
-24.49
-26.96
-29.38
-31.70
-33.94
-36.24
-38.85
-42.03
-45.90
-50.31
-54.77
-58.55
-60.74
-60.58
-57.56
-51.65
-43.32
-33.37
-22.79
-12.51
-3.28
4.44
10.47
14.81
17.60
19.09
19.60
19.46
19.04
18.66
18.59
19.00
19.91
21.27
22.94
24.78
26.59
28.22
29.48
30.26
30.48
30.11
29.25
28.02
26.63
25.26
24.06
23.05
22.16
21.27
20.22
18.93
17.49
16.03
14.74
13.71
12.88
12.07
11.10
9.85
8.35
6.71
5.05
3.51
2.11
0.84
-0.37
-1.61
-2.97
-4.49
-6.16
-7.85
-9.47
-10.96
-12.36
-13.82
-15.46
-17.39
-19.55
-21.84
-24.17
-26.46
-28.76
-31.15
-33.73
-36.61
-39.90
-43.60
-47.56
-51.38
-54.34
-55.64
-54.53
-50.61
-44.00
-35.35
-25.62
-15.85
-6.85
0.93
7.32
12.33
16.02
18.41
19.50
19.42
18.50
17.24
16.23
15.93
16.51
17.84
19.65
21.62
23.54
25.31
26.87
28.13
28.91
29.09
28.59
27.48
25.93
24.16
22.38
20.71
19.13
17.51
15.64
13.31
10.45
7.22
3.97
1.13
-0.99
-2.32
-3.06
-3.55
-4.09
-4.84
-5.77
-6.77
-7.71
-8.56
-9.34
-10.11
-10.89
-11.74
-12.73
-13.99
-15.65
-17.77
-20.27
-22.95
-25.48
-27.63
-29.33
-30.71
-32.07
-33.80
-36.14
-39.09
-42.30
-45.15
-46.81
-46.50
-43.69
-38.26
-30.61
-21.55
-12.12
-3.32
4.08
9.70
13.46
15.52
16.18
15.79
14.71
13.27
11.69
10.06
8.36
6.57
4.90
3.97
4.62
7.62
13.01
19.78
25.87
28.91
27.10
20.09
9.16
-3.27
-14.57
-22.82
-27.27
-28.21
-26.48
-23.09
-19.00
-15.26
-12.85
-12.34
-13.27
-13.83
-11.19
-2.67
12.89
34.21
57.73
78.97
94.22
101.83
102.45
98.22
91.43
83.62
75.36
66.68
57.70
48.89
40.82
33.76
27.42
20.94
13.34
4.03
-6.91
-18.61
-29.79
-39.10
-45.47
-48.43
-48.03
-44.83
-39.63
-33.35
-26.76
-20.46
-14.80
-9.99
-6.13
-3.37
-1.82
-1.51
-2.29
-3.75
-5.34
-6.52
-6.99
-6.77
-6.20
-5.67
-5.44
-5.45
-5.40
-4.89
-3.69
-1.81
0.50
2.95
5.30
7.41
9.20
10.59
11.50
11.87
11.74
11.22
10.51
9.73
8.93
8.07
7.08
5.94
4.70
3.44
2.16
0.81
-0.67
-2.39
-4.35
-6.49
-8.71
-10.92
-13.05
-15.14
-17.31
-19.74
-22.61
-26.08
-30.21
-34.91
-39.95
-44.90
-49.17
-52.15
-53.18
-51.83
-47.93
-41.71
-33.72
-24.79
-15.80
-7.49
-0.32
5.50
10.01
13.29
15.44
16.52
16.61
15.93
14.80
13.65
12.93
12.94
13.82
15.45
17.60
19.99
22.40
24.68
26.67
28.19
29.04
29.06
28.26
26.87
25.24
23.76
22.64
21.87
21.25
20.48
19.35
17.78
15.86
13.69
11.46
9.27
7.20
5.31
3.61
2.10
0.73
-0.58
-1.90
-3.33
-4.90
-6.60
-8.43
-10.38
-12.49
-14.77
-17.24
-19.85
-22.56
-25.30
-28.07
-30.85
-33.68
-36.65
-39.84
-43.33
-47.15
-51.12
-54.83
-57.61
-58.63
-57.22
-53.06
-46.30
-37.54
-27.60
-17.35
-7.51
1.35
8.83
14.63
18.59
20.76
21.43
21.06
20.19
19.32
18.74
18.56
18.78
19.36
20.25
21.43
22.79
24.15
25.28
25.96
26.18
26.04
25.75
25.52
25.41
25.33
25.13
24.70
23.98
23.04
21.96
20.84
19.66
18.45
17.19
15.94
14.78
13.75
12.87
12.08
11.26
10.30
9.09
7.60
5.89
4.08
2.30
0.61
-1.01
-2.69
-4.57
-6.76
-9.31
-12.22
-15.42
-18.82
-22.32
-25.80
-29.15
-32.33
-35.35
-38.39
-41.67
-45.40
-49.64
-54.12
-58.28
-61.31
-62.35
-60.76
-56.31
-49.23
-40.17
-29.99
-19.59
-9.73
-0.94
6.51
12.46
16.94
20.00
21.76
22.41
22.26
21.76
21.39
21.62
22.66
24.46
26.71
29.04
31.14
32.88
34.29
35.39
36.15
36.37
35.90
34.66
32.83
30.74
28.76
27.15
25.94
25.02
24.19
23.23
22.07
20.67
19.06
17.24
15.29
13.29
11.37
9.65
8.20
6.98
5.81
4.56
3.11
1.44
-0.38
-2.24
-4.12
-6.03
-8.09
-10.45
-13.17
-16.20
-19.36
-22.41
-25.11
-27.35
-29.14
-30.69
-32.24
-34.08
-36.41
-39.33
-42.77
-46.42
-49.74
-51.99
-52.39
-50.34
-45.58
-38.31
-29.19
-19.11
-9.01
0.31
8.31
14.72
19.50
22.77
24.73
25.62
25.70
25.20
24.35
23.37
22.44
21.76
21.44
21.56
22.12
23.06
24.28
25.63
26.95
28.04
28.66
28.62
27.83
26.38
24.52
22.58
20.84
19.41
18.22
17.11
15.91
14.53
12.97
11.26
9.45
7.56
5.63
3.71
1.91
0.31
-1.01
-2.05
-2.85
-3.51
-4.19
-5.05
-6.20
-7.73
-9.60
-11.72
-13.93
-16.12
-18.19
-20.14
-22.01
-23.90
-25.89
-28.13
-30.67
-33.54
-36.61
-39.57
-41.93
-43.06
-42.36
-39.44
-34.32
-27.36
-19.25
-10.75
-2.59
4.69
10.72
15.20
18.00
19.11
18.76
17.38
15.54
13.79
12.52
11.94
12.06
12.80
14.04
15.67
17.51
19.34
20.88
21.89
22.21
21.83
20.83
19.36
17.56
15.56
13.47
11.36
9.32
7.38
5.56
3.85
2.19
0.55
-1.13
-2.91
-4.85
-6.97
-9.25
-11.62
-13.96
-16.12
-18.02
-19.71
-21.40
-23.32
-25.69
-28.65
-32.22
-36.33
-40.85
-45.55
-49.99
-53.49
-55.19
-54.34
-50.52
-43.89
-35.15
-25.33
-15.43
-6.22
1.90
8.72
14.13
18.04
20.41
21.38
21.34
20.79
20.26
20.07
20.30
20.83
21.51
22.29
23.22
24.38
25.78
27.22
28.39
28.95
28.70
27.69
26.14
24.37
22.63
21.01
19.45
17.81
15.99
14.00
11.92
9.89
8.05
6.43
5.01
3.66
2.21
0.51
-1.58
-4.11
-6.99
-10.06
-13.08
-15.84
-18.23
-20.29
-22.19
-24.25
-26.84
-30.24
-34.59
-39.71
-45.00
-49.54
-52.22
-52.12
-48.77
-42.37
-33.69
-23.81
-13.78
-4.35
4.05
11.22
17.02
21.32
24.01
25.15
25.03
24.12
22.97
22.02
21.60
21.84
22.73
24.19
26.02
27.99
29.82
31.32
32.35
32.86
32.87
32.42
31.56
30.28
28.68
26.83
24.91
23.07
21.42
20.04
18.92
17.98
17.13
16.28
15.35
14.31
13.16
11.94
10.69
9.44
8.15
6.75
5.17
3.37
1.47
-0.37
-1.96
-3.24
-4.33
-5.50
-7.05
-9.11
-11.63
-14.37
-17.05
-19.44
-21.53
-23.40
-25.25
-27.31
-29.79
-32.90
-36.74
-41.26
-46.19
-50.93
-54.65
-56.47
-55.68
-51.97
-45.53
-37.01
-27.36
-17.61
-8.62
-0.98
5.05
9.48
12.51
14.37
15.32
15.66
15.69
15.73
16.07
16.88
18.16
19.78
21.54
23.27
24.92
26.56
28.22
29.85
31.28
32.21
32.44
31.90
30.73
29.19
27.53
25.92
24.40
22.96
21.58
20.33
19.26
18.36
17.51
16.56
15.40
14.04
12.61
11.32
10.27
9.42
8.59
7.57
6.23
4.58
2.74
0.88
-0.91
-2.57
-4.11
-5.57
-6.92
-8.16
-9.34
-10.55
-11.95
-13.69
-15.78
-18.15
-20.60
-22.94
-25.08
-27.09
-29.18
-31.65
-34.75
-38.58
-42.90
-47.14
-50.49
-52.05
-51.13
-47.47
-41.36
-33.52
-24.90
-16.31
-8.33
-1.23
4.87
9.86
13.58
15.90
16.86
16.74
16.00
15.17
14.69
14.77
15.40
16.49
17.92
19.60
21.44
23.30
25.01
26.40
27.31
27.66
27.48
26.83
25.79
24.47
23.01
21.53
20.20
19.12
18.35
17.83
17.46
17.11
16.68
16.14
15.48
14.71
13.85
12.90
11.89
10.81
9.68
8.44
7.04
5.46
3.68
1.78
-0.14
-1.97
-3.65
-5.14
-6.51
-7.81
-9.17
-10.70
-12.54
-14.73
-17.24
-19.90
-22.51
-24.86
-26.88
-28.69
-30.61
-33.06
-36.41
-40.76
-45.83
-50.90
-54.95
-56.95
-56.16
-52.38
-46.01
-37.95
-29.32
-21.14
-14.14
-8.68
-4.81
-2.40
-1.26
-1.23
-2.24
-4.24
-7.11
-10.65
-14.52
-18.25
-21.42
-23.78
-25.39
-26.64
-28.22
-30.84
-34.99
-40.73
-47.67
-55.10
-62.38
-69.21
-75.85
-83.10
-91.91
-103.02
-116.53
-131.59
-146.40
-158.53
-165.62
-166.32
-160.98
-151.88
-142.64
-137.02
-137.79
-145.84
-160.11
-177.86
-195.33
-208.35
-212.90
-205.77
-185.15
-151.11
-105.42
-50.94
9.32
72.71
136.79
198.75
254.96
301.29
334.25
352.22
356.16
349.16
335.20
317.75
298.96
279.70
260.28
241.24
223.64
208.71
197.22
188.83
182.07
174.86
165.44
153.10
138.57
123.56
109.92
98.81
90.23
83.21
76.55
69.46
61.97
54.79
48.80
44.62
42.32
41.42
41.30
41.37
41.42
41.62
42.35
43.92
46.36
49.32
52.26
54.71
56.55
58.08
59.83
62.37
65.99
70.69
76.23
82.15
87.93
92.92
96.37
97.54
95.90
91.22
83.69
73.76
61.93
48.54
33.76
17.64
0.29
-17.94
-36.48
-54.66
-71.95
-88.05
-102.99
-116.84
-129.59
-140.96
-150.54
-158.01
-163.41
-167.24
-170.24
-173.08
-176.02
-178.77
-180.62
-180.80
-178.76
-174.38
-167.92
-159.82
-150.53
-140.40
-129.76
-118.91
-108.28
-98.33
-89.43
-81.78
-75.28
-69.68
-64.62
-59.81
-55.04
-50.15
-45.02
-39.57
-33.78
-27.79
-21.83
-16.18
-11.04
-6.48
-2.44
1.24
4.65
7.88
10.90
13.62
15.89
17.58
18.60
18.95
18.75
18.24
17.69
17.32
17.24
17.46
17.84
18.24
18.49
18.50
18.25
17.83
17.37
16.97
16.66
16.36
15.89
15.08
13.83
12.16
10.20
8.01
5.56
2.70
-0.77
-4.86
-9.35
-13.79
-17.65
-20.52
-22.18
-22.58
-21.72
-19.53
-15.86
-10.60
-3.94
3.62
11.28
18.17
23.57
27.09
28.77
28.89
27.95
26.47
25.00
24.02
23.89
24.76
26.54
28.87
31.21
33.06
34.01
33.96
33.02
31.53
29.83
28.24
26.91
25.75
24.50
22.71
19.99
16.13
11.35
6.23
1.55
-1.99
-4.10
-5.00
-5.29
-5.72
-6.79
-8.63
-10.99
-13.43
-15.51
-16.93
-17.65
-17.75
-17.44
-16.93
-16.47
-16.29
-16.64
-17.72
-19.64
-22.34
-25.58
-29.08
-32.63
-36.23
-40.12
-44.66
-50.03
-55.99
-61.79
-66.28
-68.30
-67.03
-62.33
-54.78
-45.43
-35.49
-25.95
-17.37
-9.92
-3.57
1.76
6.03
9.08
10.87
11.55
11.57
11.55
12.02
13.23
15.08
17.26
19.44
21.48
23.36
25.18
26.94
28.52
29.66
30.17
30.00
29.24
28.12
26.83
25.52
24.23
22.96
21.73
20.57
19.52
18.58
17.71
16.78
15.65
14.20
12.37
10.20
7.75
5.13
2.39
-0.48
-3.53
-6.81
-10.31
-13.93
-17.44
-20.63
-23.38
-25.75
-27.97
-30.44
-33.49
-37.25
-41.43
-45.37
-48.15
-48.85
-46.80
-41.82
-34.29
-24.97
-14.85
-4.90
4.12
11.72
17.66
21.92
24.59
25.84
25.94
25.28
24.30
23.46
23.14
23.53
24.59
26.10
27.74
29.23
30.40
31.19
31.64
31.78
31.65
31.24
30.53
29.51
28.18
26.60
24.89
23.25
21.86
20.83
20.14
19.55
18.76
17.47
15.60
13.30
10.93
8.93
7.60
6.91
6.48
5.78
4.33
1.91
-1.34
-5.01
-8.66
-12.03
-15.13
-18.18
-21.47
-25.14
-29.13
-33.24
-37.21
-40.73
-43.49
-45.05
-44.91
-42.56
-37.78
-30.78
-22.25
-13.16
-4.56
2.78
8.46
12.46
14.95
16.18
16.38
15.82
14.82
13.79
13.13
13.06
13.66
14.78
16.23
17.82
19.48
21.14
22.73
24.12
25.10
25.49
25.19
24.23
22.72
20.85
18.80
16.74
14.78
12.97
11.29
9.67
8.02
6.33
4.67
3.18
1.93
0.84
-0.35
-1.91
-4.06
-6.77
-9.83
-13.01
-16.23
-19.64
-23.54
-28.19
-33.63
-39.59
-45.62
-51.29
-56.36
-60.92
-65.30
-69.84
-74.73
-79.66
-83.87
-86.19
-85.46
-80.92
-72.72
-62.00
-50.80
-41.42
-35.74
-34.55
-37.33
-42.49
-48.00
-52.12
-54.02
-53.92
-52.83
-52.12
-52.90
-55.67
-59.99
-64.18
-65.26
-59.40
-42.96
-14.07
26.17
73.41
121.27
163.51
196.15
218.49
232.40
240.47
244.18
243.15
235.82
221.06
199.48
173.62
147.01
122.70
102.11
84.92
69.80
55.48
41.53
28.49
17.40
8.96
3.01
-1.57
-6.46
-13.10
-22.11
-32.85
-43.68
-52.46
-57.39
-57.60
-53.42
-46.12
-37.46
-28.98
-21.64
-15.72
-10.99
-7.10
-3.87
-1.38
0.06
0.24
-0.87
-2.97
-5.54
-7.98
-9.86
-10.93
-11.16
-10.65
-9.53
-7.91
-5.92
-3.81
-1.95
-0.82
-0.80
-1.97
-4.00
-6.29
-8.23
-9.53
-10.38
-11.31
-12.91
-15.48
-18.79
-22.30
-25.36
-27.51
-28.55
-28.45
-27.27
-25.14
-22.33
-19.41
-17.13
-16.21
-17.00
-19.35
-22.65
-26.16
-29.43
-32.45
-35.51
-38.91
-42.50
-45.61
-47.14
-46.03
-41.67
-34.20
-24.44
-13.62
-3.02
6.34
13.86
19.28
22.59
23.98
23.74
22.31
20.23
18.09
16.47
15.79
16.19
17.51
19.36
21.23
22.66
23.40
23.47
23.11
22.60
22.15
21.79
21.41
20.85
20.00
18.81
17.35
15.71
13.98
12.24
10.52
8.81
7.09
5.26
3.26
1.04
-1.34
-3.76
-6.08
-8.13
-9.85
-11.26
-12.41
-13.42
-14.37
-15.32
-16.37
-17.65
-19.28
-21.41
-24.10
-27.35
-31.02
-34.83
-38.34
-41.02
-42.24
-41.47
-38.37
-32.99
-25.78
-17.49
-9.00
-1.10
5.64
10.92
14.67
16.89
17.69
17.24
15.88
14.08
12.40
11.37
11.27
12.13
13.70
15.60
17.46
19.05
20.25
21.03
21.34
21.14
20.36
19.02
17.27
15.31
13.36
11.60
10.06
8.67
7.29
5.76
4.03
2.11
0.16
-1.67
-3.28
-4.71
-6.16
-7.86
-10.00
-12.59
-15.40
-18.15
-20.59
-22.67
-24.60
-26.68
-29.28
-32.53
-36.34
-40.32
-43.86
-46.23
-46.76
-45.00
-40.81
-34.46
-26.57
-17.94
-9.38
-1.53
5.20
10.65
14.76
17.57
19.14
19.60
19.20
18.35
17.48
17.04
17.28
18.25
19.82
21.75
23.79
25.72
27.37
28.58
29.26
29.32
28.77
27.70
26.26
24.60
22.82
20.98
19.08
17.15
15.18
13.23
11.33
9.47
7.64
5.84
4.06
2.33
0.63
-1.09
-2.93
-4.99
-7.31
-9.82
-12.35
-14.78
-17.06
-19.30
-21.70
-24.50
-27.80
-31.58
-35.65
-39.67
-43.15
-45.47
-45.98
-44.14
-39.70
-32.85
-24.25
-14.81
-5.50
2.93
10.00
15.57
19.63
22.25
23.47
23.44
22.47
21.07
19.84
19.27
19.59
20.67
22.15
23.59
24.69
25.35
25.62
25.57
25.22
24.54
23.50
22.16
20.65
19.07
17.48
15.84
14.16
12.46
10.87
9.51
8.46
7.65
6.95
6.18
5.25
4.13
2.84
1.46
0.04
-1.35
-2.66
-3.86
-4.93
-5.94
-6.99
-8.17
-9.58
-11.24
-13.13
-15.23
-17.52
-20.01
-22.69
-25.59
-28.69
-31.98
-35.41
-38.79
-41.76
-43.77
-44.12
-42.21
-37.76
-31.01
-22.66
-13.75
-5.28
2.06
7.98
12.55
15.95
18.33
19.70
20.09
19.66
18.74
17.83
17.34
17.51
18.31
19.51
20.84
22.08
23.13
23.94
24.49
24.71
24.52
23.88
22.81
21.38
19.75
18.06
16.46
15.04
13.86
12.86
11.94
10.98
9.92
8.78
7.68
6.77
6.14
5.72
5.30
4.56
3.26
1.30
-1.19
-3.93
-6.59
-8.94
-10.94
-12.72
-14.44
-16.23
-18.06
-19.82
-21.40
-22.74
-23.92
-25.17
-26.72
-28.75
-31.29
-34.18
-37.10
-39.55
-41.02
-40.95
-38.95
-34.87
-28.89
-21.51
-13.52
-5.75
1.07
6.47
10.33
12.77
14.04
14.39
14.04
13.19
12.10
11.05
10.32
10.11
10.42
11.10
11.89
12.57
13.04
13.29
13.39
13.34
13.09
12.53
11.60
10.32
8.79
7.16
5.55
4.04
2.68
1.50
0.55
-0.05
-0.20
0.24
1.35
3.21
5.79
8.97
12.45
15.85
18.69
20.59
21.36
21.10
20.17
19.08
18.29
18.03
18.23
18.50
18.33
17.24
14.93
11.34
6.59
0.86
-5.62
-12.56
-19.60
-26.18
-31.63
-35.27
-36.62
-35.55
-32.36
-27.65
-22.15
-16.50
-11.10
-6.11
-1.60
2.36
5.56
7.78
8.86
8.91
8.29
7.55
7.19
7.54
8.59
10.11
11.77
13.31
14.58
15.56
16.24
16.60
16.55
16.04
15.07
13.78
12.40
11.16
10.18
9.43
8.75
8.00
7.03
5.86
4.54
3.20
1.92
0.75
-0.33
-1.40
-2.54
-3.83
-5.28
-6.89
-8.64
-10.52
-12.51
-14.59
-16.68
-18.65
-20.41
-21.99
-23.59
-25.57
-28.25
-31.81
-36.06
-40.45
-44.16
-46.32
-46.26
-43.65
-38.62
-31.68
-23.59
-15.19
-7.26
-0.36
5.17
9.20
11.77
13.02
13.20
12.60
11.56
10.43
9.55
9.22
9.55
10.50
11.91
13.49
15.05
16.45
17.68
18.71
19.48
19.85
19.67
18.87
17.56
15.96
14.36
12.97
11.85
10.92
10.06
9.21
8.41
7.69
7.08
6.51
5.80
4.81
3.47
1.85
0.15
-1.45
-2.88
-4.25
-5.74
-7.56
-9.77
-12.26
-14.77
-17.05
-18.98
-20.60
-22.09
-23.73
-25.73
-28.25
-31.29
-34.72
-38.25
-41.41
-43.63
-44.26
-42.84
-39.19
-33.49
-26.31
-18.38
-10.43
-3.05
3.38
8.68
12.77
15.64
17.32
17.89
17.58
16.75
15.84
15.25
15.26
15.94
17.19
18.77
20.42
21.96
23.25
24.22
24.80
24.89
24.42
23.40
21.97
20.38
18.87
17.62
16.64
15.80
14.92
13.93
12.82
11.71
10.70
9.80
8.97
8.13
7.27
6.40
5.57
4.71
3.71
2.45
0.91
-0.76
-2.33
-3.61
-4.61
-5.51
-6.64
-8.25
-10.39
-12.93
-15.59
-18.14
-20.45
-22.56
-24.59
-26.70
-29.08
-31.82
-34.91
-38.19
-41.23
-43.44
-44.15
-42.81
-39.20
-33.55
-26.40
-18.57
-10.80
-3.68
2.47
7.51
11.42
14.19
15.83
16.42
16.17
15.42
14.60
14.11
14.17
14.85
16.01
17.47
19.01
20.42
21.53
22.25
22.51
22.33
21.75
20.87
19.77
18.48
17.06
15.56
14.08
12.73
11.61
10.73
10.00
9.27
8.37
7.19
5.74
4.15
2.61
1.29
0.25
-0.60
-1.48
-2.66
-4.31
-6.45
-8.92
-11.48
-13.92
-16.15
-18.24
-20.32
-22.53
-24.96
-27.66
-30.66
-33.97
-37.50
-40.90
-43.59
-44.73
-43.62
-39.89
-33.73
-25.88
-17.35
-9.07
-1.69
4.50
9.50
13.33
16.03
17.58
18.07
17.73
16.95
16.15
15.70
15.82
16.57
17.86
19.54
21.37
23.10
24.50
25.38
25.67
25.42
24.75
23.80
22.68
21.44
20.12
18.74
17.33
15.92
14.53
13.14
11.77
10.43
9.16
7.95
6.78
5.53
4.12
2.50
0.73
-1.04
-2.70
-4.20
-5.60
-7.05
-8.72
-10.67
-12.85
-15.16
-17.47
-19.71
-21.88
-24.07
-26.40
-28.99
-31.94
-35.28
-38.95
-42.70
-46.04
-48.25
-48.56
-46.41
-41.64
-34.60
-26.10
-17.12
-8.51
-0.87
5.56
10.69
14.50
16.99
18.21
18.35
17.81
17.08
16.64
16.76
17.48
18.64
19.98
21.30
22.49
23.52
24.41
25.11
25.60
25.82
25.73
25.37
24.76
23.90
22.81
21.47
19.91
18.20
16.47
14.86
13.51
12.44
11.59
10.82
9.98
9.00
7.88
6.70
5.57
4.52
3.52
2.50
1.35
-0.05
-1.75
-3.79
-6.13
-8.68
-11.29
-13.77
-15.99
-17.94
-19.75
-21.69
-24.01
-26.94
-30.55
-34.72
-39.11
-43.12
-45.93
-46.68
-44.68
-39.71
-32.17
-23.01
-13.50
-4.82
2.24
7.45
10.97
13.22
14.56
15.27
15.53
15.52
15.48
15.64
16.17
17.05
18.09
19.00
19.56
19.76
19.80
20.02
20.70
21.90
23.37
24.68
25.35
25.07
23.83
21.87
19.58
17.32
15.30
13.61
12.24
11.19
10.45
9.99
9.72
9.46
8.94
7.95
6.41
4.44
2.30
0.27
-1.49
-3.00
-4.42
-5.99
-7.86
-10.08
-12.55
-15.13
-17.70
-20.19
-22.65
-25.18
-27.97
-31.20
-34.99
-39.36
-44.05
-48.50
-51.96
-53.58
-52.73
-49.15
-43.09
-35.22
-26.46
-17.73
-9.75
-2.95
2.55
6.84
10.09
12.51
14.27
15.51
16.43
17.20
18.01
19.03
20.33
21.94
23.78
25.74
27.65
29.35
30.69
31.54
31.91
31.84
31.47
30.86
30.01
28.87
27.40
25.66
23.85
22.19
20.83
19.76
18.81
17.76
16.48
14.99
13.46
12.07
10.88
9.82
8.74
7.55
6.25
4.95
3.74
2.60
1.37
-0.19
-2.26
-4.89
-7.94
-11.14
-14.22
-17.03
-19.53
-21.82
-24.09
-26.56
-29.47
-32.95
-36.97
-41.25
-45.28
-48.31
-49.60
-48.55
-44.90
-38.82
-30.89
-21.96
-12.94
-4.62
2.47
8.09
12.23
14.99
16.54
17.07
16.81
16.11
15.36
14.94
15.07
15.79
16.94
18.26
19.56
20.71
21.71
22.59
23.34
23.88
24.04
23.70
22.79
21.39
19.67
17.86
16.14
14.60
13.21
11.85
10.37
8.66
6.72
4.65
2.58
0.64
-1.09
-2.62
-4.08
-5.60
-7.36
-9.45
-11.87
-14.48
-17.07
-19.46
-21.58
-23.54
-25.58
-28.00
-30.99
-34.54
-38.39
-42.05
-44.89
-46.22
-45.53
-42.56
-37.40
-30.52
-22.63
-14.50
-6.80
0.06
5.90
10.72
14.52
17.29
19.02
19.80
19.87
19.61
19.40
19.55
20.16
21.11
22.24
23.37
24.39
25.30
26.06
26.60
26.78
26.49
25.65
24.34
22.69
20.88
19.07
17.39
15.89
14.56
13.33
12.11
10.79
9.31
7.62
5.80
3.94
2.18
0.65
-0.61
-1.65
-2.66
-3.87
-5.52
-7.73
-10.44
-13.44
-16.45
-19.27
-21.86
-24.27
-26.72
-29.39
-32.40
-35.77
-39.24
-42.30
-44.25
-44.36
-42.10
-37.41
-30.73
-22.88
-14.75
-7.08
-0.26
5.58
10.41
14.21
16.93
18.52
19.10
18.95
18.46
18.05
18.00
18.45
19.35
20.61
22.07
23.63
25.20
26.68
27.96
28.85
29.17
28.78
27.63
25.86
23.73
21.55
19.59
18.01
16.77
15.76
14.80
13.78
12.64
11.37
9.98
8.44
6.74
4.87
2.89
0.90
-1.03
-2.87
-4.69
-6.61
-8.73
-11.03
-13.41
-15.70
-17.77
-19.60
-21.34
-23.20
-25.45
-28.28
-31.78
-35.82
-40.09
-43.98
-46.73
-47.54
-45.84
-41.44
-34.66
-26.29
-17.38
-8.92
-1.63
4.12
8.33
11.17
12.93
13.82
14.07
13.93
13.68
13.59
13.93
14.80
16.17
17.95
19.93
21.96
23.89
25.59
26.88
27.61
27.64
26.94
25.62
23.87
21.97
20.12
18.43
16.95
15.62
14.39
13.22
12.10
10.99
9.83
8.57
7.12
5.50
3.78
2.10
0.55
-0.85
-2.20
-3.70
-5.52
-7.75
-10.31
-12.99
-15.54
-17.81
-19.79
-21.66
-23.64
-25.96
-28.73
-31.94
-35.41
-38.82
-41.67
-43.36
-43.27
-40.96
-36.32
-29.70
-21.87
-13.77
-6.27
0.07
5.11
8.94
11.77
13.71
14.81
15.12
14.83
14.32
14.02
14.29
15.24
16.68
18.31
19.80
21.01
21.91
22.54
22.90
22.91
22.48
21.58
20.31
18.85
17.38
16.01
14.77
13.64
12.62
11.73
10.95
10.26
9.53
8.61
7.39
5.87
4.15
2.38
0.71
-0.85
-2.32
-3.82
-5.46
-7.32
-9.39
-11.62
-13.87
-16.04
-18.08
-20.07
-22.17
-24.55
-27.29
-30.32
-33.37
-36.02
-37.77
-38.15
-36.80
-33.55
-28.51
-22.03
-14.69
-7.17
-0.15
5.84
10.42
13.44
14.90
15.02
14.16
12.85
11.59
10.83
10.82
11.57
12.91
14.57
16.29
17.87
19.19
20.18
20.83
21.19
21.28
21.20
20.97
20.57
20.00
19.23
18.25
17.11
15.86
14.57
13.28
12.04
10.83
9.61
8.30
6.83
5.18
3.40
1.61
-0.10
-1.72
-3.39
-5.28
-7.52
-10.05
-12.67
-15.10
-17.14
-18.81
-20.30
-21.90
-23.86
-26.26
-29.08
-32.13
-35.09
-37.51
-38.79
-38.33
-35.69
-30.84
-24.22
-16.66
-9.10
-2.28
3.39
7.82
11.10
13.32
14.50
14.70
14.14
13.22
12.50
12.41
13.14
14.53
16.20
17.73
18.88
19.63
20.13
20.58
21.06
21.54
21.88
21.89
21.44
20.47
19.04
17.29
15.44
13.66
12.10
10.76
9.58
8.42
7.18
5.80
4.32
2.84
1.42
0.10
-1.20
-2.60
-4.21
-6.06
-8.11
-10.23
-12.24
-14.01
-15.49
-16.77
-18.06
-19.58
-21.54
-24.05
-27.06
-30.38
-33.60
-36.18
-37.56
-37.23
-34.90
-30.62
-24.74
-17.88
-10.76
-4.04
1.78
6.48
9.96
12.25
13.44
13.66
13.11
12.10
11.04
10.39
10.44
11.29
12.77
14.50
16.11
17.34
18.13
18.59
18.85
18.93
18.77
18.26
17.33
16.06
14.62
13.22
12.02
11.10
10.38
9.72
8.99
8.06
6.90
5.54
4.09
2.70
1.47
0.39
-0.65
-1.84
-3.34
-5.18
-7.29
-9.46
-11.49
-13.26
-14.79
-16.18
-17.58
-19.16
-21.05
-23.37
-26.04
-28.80
-31.18
-32.53
-32.23
-29.94
-25.70
-19.90
-13.22
-6.37
0.04
5.59
9.99
13.04
14.68
14.98
14.24
12.93
11.61
10.78
10.68
11.32
12.50
13.95
15.40
16.69
17.74
18.50
18.95
19.05
18.82
18.29
17.53
16.56
15.39
13.99
12.33
10.50
8.66
7.03
5.75
4.86
4.21
3.57
2.74
1.67
0.44
-0.81
-1.95
-2.96
-3.92
-4.92
-6.00
-7.11
-8.18
-9.16
-10.08
-11.11
-12.40
-14.11
-16.31
-18.95
-21.84
-24.67
-27.01
-28.40
-28.42
-26.85
-23.72
-19.30
-14.07
-8.57
-3.30
1.31
4.98
7.54
8.97
9.37
8.95
8.00
6.85
5.88
5.44
5.78
6.99
8.99
11.46
13.95
15.98
17.21
17.53
17.02
15.94
14.56
13.05
11.46
9.75
7.91
6.01
4.21
2.68
1.50
0.59
-0.26
-1.26
-2.54
-4.06
-5.73
-7.41
-9.02
-10.63
-12.27
-14.00
-15.79
-17.61
-19.48
-21.53
-23.96
-26.89
-30.32
-33.91
-37.09
-39.13
-39.40
-37.52
-33.48
-27.66
-20.74
-13.48
-6.57
-0.51
4.44
8.23
10.93
12.66
13.55
13.79
13.56
13.14
12.82
12.88
13.46
14.56
15.97
17.47
18.81
19.85
20.53
20.86
20.84
20.48
19.75
18.70
17.40
15.98
14.49
12.97
11.40
9.76
8.10
6.47
4.96
3.54
2.14
0.61
-1.18
-3.27
-5.57
-7.94
-10.22
-12.30
-14.21
-16.02
-17.88
-19.87
-22.11
-24.63
-27.45
-30.43
-33.26
-35.44
-36.33
-35.38
-32.29
-27.24
-20.79
-13.75
-6.91
-0.81
4.33
8.51
11.78
14.21
15.82
16.66
16.88
16.67
16.28
15.89
15.62
15.52
15.64
16.03
16.74
17.72
18.82
19.83
20.50
20.71
20.43
19.71
18.66
17.38
15.98
14.54
13.16
11.91
10.82
9.84
8.84
7.69
6.35
4.88
3.39
2.04
0.88
-0.21
-1.40
-2.89
-4.76
-6.92
-9.13
-11.12
-12.75
-14.06
-15.25
-16.60
-18.33
-20.50
-23.04
-25.78
-28.51
-30.93
-32.68
-33.33
-32.38
-29.52
-24.71
-18.35
-11.13
-3.93
2.52
7.75
11.58
14.08
15.37
15.58
14.84
13.39
11.64
10.13
9.35
9.56
10.74
12.52
14.43
16.03
17.11
17.64
17.79
17.69
17.41
16.93
16.22
15.26
14.11
12.84
11.49
10.04
8.41
6.59
4.61
2.63
0.80
-0.76
-2.08
-3.30
-4.64
-6.26
-8.24
-10.53
-12.97
-15.41
-17.72
-19.92
-22.15
-24.66
-27.63
-31.09
-34.81
-38.29
-40.85
-41.85
-40.81
-37.56
-32.29
-25.53
-17.96
-10.34
-3.29
2.77
7.64
11.27
13.72
15.10
15.60
15.47
15.04
14.68
14.70
15.30
16.48
18.06
19.78
21.31
22.45
23.06
23.17
22.86
22.24
21.42
20.50
19.54
18.53
17.46
16.27
14.90
13.35
11.65
9.91
8.23
6.69
5.29
3.94
2.53
0.92
-1.01
-3.29
-5.87
-8.62
-11.32
-13.78
-15.89
-17.65
-19.27
-20.99
-23.13
-25.89
-29.32
-33.23
-37.16
-40.43
-42.29
-42.07
-39.43
-34.43
-27.59
-19.72
-11.67
-4.19
2.26
7.51
11.58
14.57
16.64
17.90
18.50
18.64
18.58
18.60
18.90
19.60
20.65
21.93
23.25
24.43
25.33
25.91
26.18
26.23
26.12
25.89
25.55
25.05
24.35
23.41
22.23
20.84
19.28
17.61
15.89
14.18
12.55
11.07
9.77
8.65
7.66
6.70
5.67
4.46
3.02
1.36
-0.40
-2.10
-3.64
-5.01
-6.37
-7.94
-9.90
-12.33
-15.04
-17.77
-20.21
-22.19
-23.72
-25.02
-26.45
-28.34
-30.95
-34.23
-37.83
-41.07
-43.10
-43.15
-40.80
-36.08
-29.51
-21.87
-13.97
-6.47
0.22
5.88
10.41
13.75
15.90
16.94
17.06
16.58
15.83
15.20
14.96
15.25
16.05
17.22
18.52
19.73
20.73
21.46
21.96
22.27
22.35
22.13
21.53
20.54
19.25
17.87
16.58
15.51
14.68
14.02
13.41
12.72
11.92
11.03
10.12
9.26
8.44
7.57
6.53
5.21
3.63
1.94
0.37
-0.91
-1.86
-2.61
-3.45
-4.62
-6.22
-8.19
-10.34
-12.45
-14.39
-16.17
-17.91
-19.76
-21.82
-24.17
-26.78
-29.64
-32.66
-35.64
-38.20
-39.76
-39.72
-37.61
-33.39
-27.43
-20.49
-13.41
-6.86
-1.16
3.63
7.57
10.68
12.89
14.10
14.37
13.97
13.36
13.02
13.28
14.16
15.50
16.99
18.40
19.60
20.59
21.40
22.05
22.46
22.57
22.30
21.66
20.70
19.55
18.33
17.17
16.15
15.26
14.45
13.58
12.52
11.26
9.90
8.60
7.50
6.65
5.94
5.19
4.27
3.17
1.98
0.84
-0.16
-1.10
-2.12
-3.36
-4.88
-6.59
-8.33
-9.96
-11.43
-12.79
-14.15
-15.61
-17.16
-18.78
-20.45
-22.27
-24.37
-26.91
-29.84
-32.84
-35.31
-36.52
-35.90
-33.19
-28.59
-22.66
-16.10
-9.59
-3.62
1.54
5.71
8.77
10.67
11.38
11.08
10.12
9.00
8.19
8.06
8.67
9.90
11.47
13.09
14.61
15.95
17.12
18.06
18.68
18.86
18.55
17.79
16.78
15.72
14.78
13.95
13.15
12.25
11.18
9.98
8.80
7.80
7.04
6.48
5.95
5.28
4.39
3.29
2.11
1.01
0.05
-0.78
-1.59
-2.52
-3.70
-5.13
-6.71
-8.29
-9.73
-11.00
-12.16
-13.36
-14.74
-16.37
-18.23
-20.21
-22.23
-24.26
-26.31
-28.37
-30.23
-31.50
-31.62
-30.10
-26.71
-21.69
-15.63
-9.34
-3.51
1.42
5.34
8.27
10.26
11.28
11.33
10.51
9.18
7.83
6.97
6.94
7.78
9.28
11.10
12.94
14.62
16.04
17.17
17.94
18.27
18.10
17.43
16.33
14.88
13.24
11.52
9.85
8.35
7.11
6.20
5.56
5.13
4.72
4.25
3.61
2.84
1.99
1.12
0.24
-0.67
-1.65
-2.76
-4.01
-5.40
-6.93
-8.59
-10.32
-12.07
-13.76
-15.37
-16.93
-18.56
-20.38
-22.52
-24.96
-27.56
-29.97
-31.74
-32.36
-31.46
-28.84
-24.60
-19.08
-12.81
-6.41
-0.47
4.55
8.32
10.75
11.88
11.92
11.19
10.09
9.04
8.38
8.37
9.07
10.39
12.08
13.83
15.32
16.37
16.91
17.01
16.77
16.34
15.76
15.05
14.22
13.23
12.11
10.87
9.57
8.20
6.76
5.24
3.64
2.00
0.39
-1.12
-2.43
-3.49
-4.35
-5.12
-6.00
-7.19
-8.76
-10.65
-12.64
-14.47
-15.95
-17.08
-18.03
-19.06
-20.38
-22.07
-24.00
-25.90
-27.41
-28.18
-27.87
-26.26
-23.30
-19.11
-14.00
-8.38
-2.69
2.66
7.38
11.23
14.04
15.66
16.02
15.18
13.38
11.06
8.75
6.95
6.01
6.03
6.87
8.26
9.88
11.48
12.90
14.06
14.90
15.40
15.52
15.25
14.57
13.55
12.27
10.82
9.33
7.85
6.39
4.96
3.53
2.13
0.82
-0.33
-1.27
-2.01
-2.64
-3.26
-3.98
-4.88
-5.96
-7.22
-8.61
-10.13
-11.85
-13.85
-16.21
-18.93
-21.85
-24.65
-26.87
-28.04
-27.74
-25.78
-22.21
-17.31
-11.57
-5.55
0.19
5.18
9.11
11.82
13.32
13.70
13.13
11.84
10.16
8.47
7.24
6.79
7.30
8.65
10.48
12.29
13.63
14.25
14.17
13.56
12.68
11.69
10.69
9.66
8.57
7.40
6.17
4.93
3.67
2.44
1.22
0.07
-0.95
-1.75
-2.32
-2.72
-3.12
-3.71
-4.66
-6.04
-7.79
-9.80
-11.95
-14.16
-16.46
-18.90
-21.55
-24.29
-26.82
-28.67
-29.28
-28.22
-25.30
-20.71
-14.95
-8.68
-2.54
2.97
7.55
11.05
13.38
14.47
14.35
13.20
11.40
9.50
8.10
7.63
8.23
9.69
11.57
13.39
14.81
15.69
16.14
16.36
16.49
16.55
16.39
15.90
15.08
14.07
13.13
12.50
12.21
12.11
11.94
11.50
10.74
9.76
8.66
7.47
6.07
4.23
1.81
-1.18
-4.53
-7.97
-11.26
-14.35
-17.33
-20.34
-23.43
-26.40
-28.84
-30.22
-30.08
-28.23
-24.73
-19.95
-14.31
-8.30
-2.37
3.03
7.46
10.52
11.98
11.84
10.42
8.24
5.92
4.00
2.85
2.62
3.30
4.73
6.70
8.97
11.26
13.27
14.71
15.39
15.24
14.32
12.77
10.79
8.54
6.13
3.66
1.23
-1.11
-3.31
-5.39
-7.43
-9.44
-11.40
-13.23
-14.87
-16.29
-17.60
-19.01
-20.71
-22.85
-25.48
-28.48
-31.58
-34.36
-36.33
-36.95
-35.81
-32.72
-27.83
-21.55
-14.54
-7.51
-1.09
4.30
8.47
11.38
13.14
13.90
13.85
13.23
12.29
11.32
10.56
10.20
10.34
10.95
11.95
13.22
14.59
15.87
16.89
17.50
17.64
17.36
16.74
15.86
14.75
13.41
11.83
10.07
8.19
6.28
4.37
2.44
0.42
-1.69
-3.84
-5.91
-7.84
-9.65
-11.50
-13.66
-16.36
-19.66
-23.39
-27.11
-30.17
-31.87
-31.63
-29.13
-24.47
-18.19
-11.12
-4.12
2.10
7.21
11.21
14.20
16.38
17.79
18.49
18.55
18.21
17.80
17.69
18.12
19.10
20.45
21.87
23.06
23.84
24.19
24.19
23.96
23.58
23.08
22.39
21.46
20.27
18.85
17.29
15.67
14.02
12.35
10.59
8.73
6.80
4.92
3.21
1.77
0.63
-0.33
-1.32
-2.59
-4.27
-6.35
-8.69
-11.07
-13.31
-15.38
-17.32
-19.28
-21.43
-23.87
-26.68
-29.87
-33.34
-36.83
-39.91
-42.02
-42.55
-41.02
-37.32
-31.68
-24.75
-17.30
-10.07
-3.58
1.93
6.44
9.98
12.66
14.51
15.68
16.40
16.96
17.73
18.95
20.66
22.71
24.79
26.59
27.88
28.57
28.75
28.60
28.30
27.95
27.56
27.05
26.33
25.37
24.18
22.85
21.43
19.94
18.38
16.73
15.05
13.39
11.82
10.39
9.02
7.64
6.14
4.45
2.58
0.59
-1.42
-3.36
-5.18
-6.87
-8.44
-9.93
-11.29
-12.44
-13.25
-13.63
-13.66
-13.55
-13.66
-14.39
-16.03
-18.65
-22.11
-26.07
-30.09
-33.66
-36.24
-37.34
-36.60
-33.87
-29.32
-23.43
-16.85
-10.27
-4.26
0.84
4.87
7.89
10.00
11.36
12.16
12.55
12.73
12.89
13.23
13.87
14.86
16.09
17.35
18.45
19.22
19.62
19.69
19.50
19.07
18.40
17.52
16.57
15.75
15.28
15.30
15.76
16.41
16.92
17.01
16.54
15.56
14.27
12.86
11.50
10.18
8.86
7.45
5.93
4.37
2.89
1.61
0.54
-0.44
-1.54
-2.92
-4.67
-6.78
-9.15
-11.68
-14.27
-16.84
-19.34
-21.69
-23.83
-25.77
-27.66
-29.66
-31.89
-34.24
-36.29
-37.43
-37.05
-34.78
-30.63
-25.04
-18.63
-12.10
-6.01
-0.72
3.52
6.57
8.37
9.02
8.75
7.98
7.19
6.74
6.86
7.51
8.48
9.53
10.51
11.36
12.11
12.80
13.42
13.89
14.14
14.16
14.00
13.80
13.64
13.53
13.32
12.83
11.94
10.67
9.22
7.83
6.70
5.87
5.17
4.35
3.12
1.35
-0.90
-3.37
-5.71
-7.64
-9.03
-9.98
-10.77
-11.71
-13.11
-15.07
-17.45
-19.78
-21.34
-21.33
-19.21
-15.00
-9.53
-4.28
-0.86
-0.51
-3.56
-9.35
-16.51
-23.48
-28.98
-32.37
-33.56
-32.83
-30.63
-27.36
-23.38
-19.00
-14.53
-10.35
-6.86
-4.39
-3.04
-2.63
-2.68
-2.52
-1.55
0.63
4.14
8.87
14.65
21.34
28.80
36.80
44.88
52.37
58.52
62.72
64.70
64.55
62.70
59.66
55.89
51.75
47.53
43.44
39.60
35.98
32.29
28.06
22.85
16.40
8.86
0.74
-7.30
-14.60
-20.78
-25.76
-29.75
-33.07
-36.06
-38.80
-41.03
-42.05
-40.97
-36.94
-29.72
-19.89
-8.89
1.38
9.20
13.45
13.89
10.96
5.47
-1.71
-9.80
-18.06
-25.73
-32.10
-36.67
-39.32
-40.44
-40.68
-40.66
-40.71
-40.72
-40.34
-39.22
-37.35
-35.10
-33.10
-31.93
-31.85
-32.62
-33.51
-33.50
-31.42
-26.30
-17.46
-4.91
10.62
27.68
44.42
59.11
70.57
78.51
83.38
86.08
87.45
87.97
87.70
86.53
84.34
81.24
77.39
72.85
67.42
60.65
52.10
41.64
29.70
17.24
5.49
-4.45
-11.97
-17.07
-20.25
-22.21
-23.62
-24.90
-26.16
-27.35
-28.33
-29.07
-29.62
-30.09
-30.56
-31.03
-31.44
-31.68
-31.79
-31.88
-32.21
-33.03
-34.55
-36.75
-39.39
-41.94
-43.72
-44.08
-42.62
-39.31
-34.52
-28.88
-23.02
-17.42
-12.35
-7.90
-4.15
-1.20
0.85
1.99
2.35
2.23
2.01
2.03
2.52
3.52
4.92
6.55
8.25
9.88
11.39
12.73
13.84
14.67
15.17
15.31
15.15
14.75
14.17
13.39
12.40
11.18
9.81
8.45
7.27
6.36
5.64
4.94
4.06
2.91
1.57
0.26
-0.83
-1.59
-2.09
-2.52
-3.06
-3.80
-4.72
-5.75
-6.83
-7.94
-9.18
-10.64
-12.38
-14.39
-16.58
-18.88
-21.23
-23.62
-26.04
-28.40
-30.47
-31.84
-32.07
-30.76
-27.80
-23.38
-17.95
-12.11
-6.40
-1.20
3.29
6.96
9.76
11.62
12.55
12.64
12.14
11.42
10.85
10.73
11.16
12.10
13.34
14.65
15.82
16.75
17.43
17.91
18.25
18.44
18.40
18.02
17.22
16.01
14.56
13.09
11.84
10.90
10.18
9.51
8.69
7.59
6.28
4.88
3.52
2.29
1.17
0.07
-1.07
-2.33
-3.73
-5.28
-6.96
-8.76
-10.59
-12.40
-14.10
-15.69
-17.25
-18.94
-20.94
-23.38
-26.26
-29.39
-32.37
-34.68
-35.77
-35.17
-32.68
-28.38
-22.68
-16.21
-9.66
-3.64
1.43
5.40
8.33
10.35
11.64
12.33
12.53
12.40
12.19
12.13
12.48
13.32
14.59
16.09
17.60
18.93
20.00
20.78
21.27
21.42
21.16
20.41
19.18
17.55
15.73
13.93
12.36
11.10
10.10
9.19
8.22
7.07
5.73
4.31
2.92
1.66
0.51
-0.62
-1.89
-3.39
-5.17
-7.15
-9.16
-11.06
-12.71
-14.13
-15.46
-16.92
-18.78
-21.21
-24.25
-27.67
-31.06
-33.87
-35.49
-35.42
-33.41
-29.52
-24.12
-17.82
-11.27
-5.11
0.27
4.61
7.85
10.04
11.29
11.79
11.81
11.63
11.55
11.79
12.46
13.53
14.85
16.25
17.53
18.58
19.37
19.93
20.27
20.41
20.32
19.93
19.18
18.08
16.72
15.27
13.90
12.76
11.89
11.23
10.60
9.81
8.71
7.29
5.64
3.92
2.26
0.71
-0.80
-2.42
-4.23
-6.23
-8.30
-10.30
-12.15
-13.91
-15.71
-17.71
-20.03
-22.69
-25.59
-28.57
-31.35
-33.54
-34.68
-34.29
-32.10
-28.12
-22.69
-16.40
-9.90
-3.81
1.46
5.67
8.72
10.68
11.68
11.92
11.68
11.26
10.92
10.89
11.30
12.15
13.37
14.77
16.19
17.49
18.62
19.56
20.34
20.92
21.22
21.13
20.53
19.40
17.80
15.90
13.92
12.12
10.70
9.75
9.21
8.87
8.45
7.75
6.70
5.37
3.91
2.44
1.02
-0.41
-1.94
-3.64
-5.54
-7.61
-9.79
-12.03
-14.31
-16.59
-18.88
-21.22
-23.67
-26.34
-29.39
-32.88
-36.74
-40.63
-43.93
-45.87
-45.77
-43.20
-38.27
-31.49
-23.71
-15.82
-8.51
-2.19
2.99
7.09
10.19
12.39
13.79
14.52
14.77
14.77
14.79
15.03
15.58
16.39
17.29
18.09
18.65
18.96
19.13
19.30
19.55
19.83
19.94
19.65
18.78
17.33
15.47
13.46
11.51
9.69
7.90
5.95
3.68
1.12
-1.56
-4.07
-6.21
-7.95
-9.44
-11.01
-12.94
-15.46
-18.65
-22.40
-26.37
-29.84
-31.83
-31.28
-27.40
-20.12
-10.26
0.57
10.44
17.58
20.86
19.84
14.81
6.56
-3.70
-14.45
-24.08
-31.18
-34.98
-35.63
-34.15
-32.01
-30.56
-30.46
-31.37
-32.22
-31.59
-28.35
-22.00
-12.77
-1.57
10.31
21.37
30.20
35.66
37.20
34.94
29.62
22.20
13.45
3.58
-7.47
-19.46
-31.19
-40.18
-43.11
-36.90
-19.93
7.02
40.80
76.71
109.85
136.29
153.85
162.13
162.03
155.04
142.66
126.08
106.27
84.25
61.40
39.41
20.01
4.39
-7.19
-15.47
-21.79
-27.48
-33.46
-40.12
-47.64
-56.21
-66.00
-76.91
-88.12
-97.94
-104.13
-104.58
-98.06
-84.68
-66.08
-44.96
-24.48
-7.49
4.26
10.49
12.50
12.54
12.95
15.21
19.35
24.13
27.81
29.05
27.50
23.87
19.42
15.29
12.06
9.61
7.42
4.91
1.73
-2.12
-6.41
-10.80
-14.79
-17.67
-18.54
-16.64
-11.82
-5.11
1.19
4.02
0.77
-9.48
-25.05
-41.90
-54.77
-58.99
-52.14
-34.75
-10.03
17.37
42.91
63.34
77.32
85.26
88.65
89.22
88.32
86.46
83.31
78.03
69.73
58.04
43.44
27.37
11.95
-0.51
-8.24
-10.45
-7.54
-0.95
7.22
14.82
20.10
21.99
20.30
15.57
8.93
1.78
-4.58
-9.28
-12.10
-13.44
-14.08
-14.89
-16.46
-18.97
-22.25
-25.95
-29.71
-33.33
-36.80
-40.28
-43.94
-47.91
-52.15
-56.44
-60.38
-63.52
-65.53
-66.26
-65.63
-63.52
-59.65
-53.59
-45.01
-33.91
-20.77
-6.40
8.30
22.55
35.88
47.91
58.26
66.44
71.93
74.43
74.03
71.17
66.57
60.97
54.97
48.97
43.21
37.76
32.54
27.37
22.07
16.55
10.87
5.22
-0.17
-5.19
-9.89
-14.43
-18.91
-23.24
-27.18
-30.43
-32.86
-34.55
-35.80
-36.93
-38.16
-39.48
-40.73
-41.72
-42.34
-42.59
-42.41
-41.71
-40.18
-37.56
-33.66
-28.59
-22.77
-16.74
-11.01
-5.90
-1.49
2.28
5.51
8.21
10.36
11.93
12.97
13.64
14.14
14.65
15.26
15.95
16.70
17.50
18.40
19.47
20.73
22.15
23.59
24.82
25.52
25.35
24.10
21.83
18.97
16.19
14.13
13.07
12.71
12.30
10.97
8.23
4.22
-0.35
-4.54
-7.64
-9.44
-10.15
-10.12
-9.60
-8.64
-7.22
-5.50
-3.91
-3.04
-3.42
-5.20
-8.00
-11.05
-13.48
-14.71
-14.66
-13.80
-12.86
-12.53
-13.17
-14.71
-16.79
-18.90
-20.69
-22.05
-23.11
-24.09
-25.22
-26.58
-28.12
-29.64
-30.77
-31.05
-29.92
-26.89
-21.63
-14.14
-4.80
5.68
16.39
26.39
34.88
41.27
45.33
47.11
46.96
45.41
43.08
40.44
37.82
35.30
32.88
30.58
28.45
26.58
24.97
23.46
21.78
19.62
16.76
13.17
8.92
4.12
-1.18
-7.01
-13.45
-20.49
-27.98
-35.59
-42.95
-49.70
-55.70
-60.88
-65.15
-68.28
-69.86
-69.49
-67.07
-62.96
-57.99
-53.21
-49.47
-47.13
-45.91
-45.09
-43.76
-41.16
-36.85
-30.81
-23.45
-15.47
-7.72
-0.95
4.36
8.08
10.38
11.55
11.87
11.51
10.58
9.16
7.41
5.52
3.65
1.89
0.19
-1.59
-3.69
-6.32
-9.57
-13.33
-17.27
-20.96
-24.02
-26.37
-28.29
-30.25
-32.59
-35.13
-37.08
-37.23
-34.56
-28.82
-20.77
-12.03
-4.54
0.13
1.36
-0.33
-3.33
-5.41
-4.31
1.59
12.80
28.55
47.02
65.78
82.56
95.61
104.04
107.72
106.95
102.23
94.11
83.16
70.08
55.73
41.11
27.25
14.96
4.72
-3.42
-9.81
-15.08
-19.98
-25.21
-31.31
-38.54
-46.70
-55.03
-62.10
-66.12
-65.46
-59.32
-48.17
-33.74
-18.28
-3.87
8.30
17.88
25.01
29.72
31.85
31.35
28.78
25.59
23.71
24.70
29.01
35.66
42.74
48.27
51.04
50.90
48.51
44.80
40.43
35.56
29.96
23.29
15.39
6.34
-3.66
-14.65
-27.17
-42.22
-60.95
-83.98
-110.87
-139.97
-168.79
-194.76
-215.93
-231.40
-241.23
-246.12
-247.00
-244.76
-240.11
-233.49
-225.16
-215.13
-203.33
-189.62
-173.87
-155.84
-135.09
-110.94
-82.62
-49.60
-12.06
29.01
71.90
114.58
155.18
192.29
224.97
252.54
274.39
289.96
298.92
301.38
298.08
290.29
279.48
266.84
253.21
239.15
225.28
212.29
200.65
190.05
179.05
165.44
147.22
123.80
96.60
68.71
43.66
23.91
10.03
0.76
-5.89
-11.59
-16.93
-21.66
-25.36
-28.07
-30.51
-33.66
-38.21
-44.08
-50.36
-55.71
-59.00
-59.80
-58.53
-56.22
-53.99
-52.54
-51.97
-51.78
-51.33
-50.11
-48.04
-45.37
-42.59
-40.09
-38.04
-36.32
-34.62
-32.62
-30.14
-27.24
-24.16
-21.32
-19.11
-17.83
-17.57
-18.13
-19.06
-19.78
-19.82
-18.99
-17.51
-15.99
-15.13
-15.42
-16.87
-19.01
-21.09
-22.46
-22.80
-22.15
-20.69
-18.46
-15.33
-11.03
-5.47
1.08
8.07
14.81
20.80
25.86
30.09
33.64
36.64
39.12
41.14
42.86
44.56
46.51
48.87
51.61
54.61
57.71
60.86
64.16
67.80
72.02
76.95
82.60
88.72
94.94
100.82
106.08
110.77
115.34
120.54
127.10
135.27
144.69
154.32
162.95
169.60
173.99
176.54
178.05
179.25
180.48
181.44
181.26
178.60
171.60
158.08
136.02
104.35
63.85
17.50
-30.07
-73.90
-110.30
-137.91
-157.67
-171.78
-182.31
-190.12
-194.82
-195.44
-191.44
-183.32
-172.58
-161.16
-150.66
-141.96
-135.17
-130.04
-126.34
-124.09
-123.54
-124.77
-127.45
-130.70
-133.32
-134.26
-133.02
-129.90
-125.76
-121.58
-117.94
-114.79
-111.56
-107.49
-101.99
-94.81
-85.94
-75.37
-62.97
-48.64
-32.53
-15.36
1.58
16.74
28.83
37.19
41.95
43.81
43.62
42.06
39.53
36.28
32.53
28.63
24.90
21.51
18.34
15.12
11.62
7.87
4.24
1.26
-0.59
-1.18
-0.70
0.39
1.64
2.73
3.57
4.31
5.19
6.44
8.17
10.34
12.76
15.15
17.18
18.64
19.64
20.68
22.67
26.63
33.28
42.51
53.24
63.60
71.60
75.92
76.29
73.48
68.71
62.98
56.55
48.96
39.24
26.24
8.92
-13.51
-41.22
-73.50
-108.58
-143.80
-176.09
-202.91
-222.84
-235.85
-243.21
-247.01
-249.51
-252.30
-255.74
-258.67
-258.82
-253.56
-240.93
-220.26
-192.23
-158.39
-120.48
-80.20
-39.28
0.11
35.35
63.87
84.03
95.94
101.54
103.86
105.84
109.29
114.52
120.63
126.21
130.16
132.11
132.42
131.83
131.00
130.42
130.25
130.52
131.15
131.85
132.23
131.76
130.04
126.92
122.59
117.37
111.44
104.75
97.09
88.48
79.35
70.57
63.09
57.50
53.72
51.12
48.87
46.44
43.75
41.09
38.78
36.92
35.35
33.81
32.12
30.34
28.59
26.93
25.20
23.10
20.28
16.58
12.00
6.76
1.18
-4.47
-9.89
-14.85
-19.20
-22.93
-26.16
-29.08
-31.95
-34.91
-37.97
-41.00
-43.73
-45.81
-46.87
-46.70
-45.23
-42.63
-39.24
-35.43
-31.43
-27.31
-23.04
-18.68
-14.41
-10.61
-7.58
-5.48
-4.17
-3.35
-2.74
-2.19
-1.69
-1.24
-0.82
-0.31
0.34
1.09
1.74
2.11
2.13
1.93
1.74
1.77
2.02
2.25
2.12
1.36
-0.05
-1.87
-3.75
-5.42
-6.89
-8.42
-10.47
-13.42
-17.38
-22.09
-27.04
-31.66
-35.53
-38.48
-40.44
-41.32
-40.83
-38.60
-34.32
-28.01
-20.14
-11.53
-3.18
4.12
9.89
14.08
16.94
18.81
19.95
20.51
20.55
20.09
19.25
18.24
17.33
16.76
16.61
16.80
17.12
17.30
17.14
16.58
15.71
14.74
13.86
13.18
12.70
12.26
11.64
10.61
9.02
6.81
4.08
1.02
-2.06
-4.87
-7.21
-9.05
-10.60
-12.18
-14.20
-16.91
-20.35
-24.26
-28.14
-31.40
-33.41
-33.73
-32.14
-28.74
-23.87
-18.06
-11.84
-5.69
0.02
5.08
9.32
12.62
14.92
16.22
16.62
16.37
15.75
15.03
14.38
13.78
13.16
12.43
11.57
10.71
10.02
9.67
9.72
10.04
10.39
10.56
10.38
9.74
8.66
7.16
5.36
3.40
1.44
-0.42
-2.15
-3.85
-5.67
-7.67
-9.84
-12.02
-14.05
-15.82
-17.37
-18.88
-20.54
-22.51
-24.84
-27.40
-29.90
-31.92
-32.96
-32.51
-30.24
-26.06
-20.21
-13.21
-5.75
1.49
7.95
13.22
17.06
19.42
20.38
20.23
19.33
18.12
16.91
15.83
14.81
13.72
12.50
11.26
10.20
9.49
9.14
8.98
8.77
8.36
7.80
7.22
6.75
6.38
5.96
5.28
4.25
2.87
1.29
-0.39
-2.08
-3.78
-5.48
-7.17
-8.78
-10.30
-11.79
-13.39
-15.25
-17.43
-19.90
-22.49
-24.91
-26.79
-27.73
-27.33
-25.27
-21.46
-16.13
-9.78
-3.13
3.11
8.34
12.25
14.74
15.94
16.09
15.48
14.44
13.25
12.10
11.10
10.24
9.47
8.70
7.91
7.11
6.35
5.71
5.28
5.10
5.10
5.12
4.88
4.13
2.78
1.02
-0.77
-2.17
-2.99
-3.37
-3.78
-4.71
-6.47
-8.92
-11.54
-13.65
-14.73
-14.80
-14.43
-14.55
-16.03
-19.16
-23.37
-27.33
-29.57
-29.19
-26.40
-22.53
-19.33
-17.97
-18.41
-19.35
-19.00
-16.28
-11.57
-6.83
-5.01
-9.21
-21.65
-43.18
-72.79
-107.53
-142.36
-170.88
-186.42
-183.42
-159.21
-115.48
-58.70
1.39
54.81
94.51
118.48
129.08
130.17
123.90
109.13
82.56
41.84
-11.42
-70.74
-126.59
-169.97
-195.39
-201.84
-191.57
-167.83
-132.95
-87.78
-32.36
32.95
106.16
182.70
255.07
314.17
351.72
363.05
348.86
314.96
269.73
220.91
173.43
129.51
90.11
56.55
31.02
15.37
9.44
10.36
13.52
14.63
11.59
4.93
-3.10
-10.16
-14.94
-17.31
-17.76
-16.86
-15.05
-12.91
-11.26
-10.89
-12.09
-14.34
-16.55
-17.65
-17.36
-16.28
-15.50
-15.85
-17.35
-19.28
-20.77
-21.37
-21.38
-21.58
-22.67
-24.79
-27.48
-29.98
-31.69
-32.53
-32.83
-33.02
-33.32
-33.61
-33.50
-32.57
-30.54
-27.41
-23.37
-18.77
-14.03
-9.60
-5.90
-3.24
-1.68
-1.04
-0.91
-0.88
-0.63
-0.10
0.60
1.22
1.54
1.46
1.00
0.28
-0.56
-1.36
-2.07
-2.70
-3.29
-3.91
-4.56
-5.19
-5.72
-6.10
-6.33
-6.51
-6.77
-7.19
-7.75
-8.37
-8.99
-9.64
-10.45
-11.62
-13.27
-15.37
-17.65
-19.77
-21.41
-22.42
-22.81
-22.63
-21.87
-20.36
-17.90
-14.42
-10.14
-5.59
-1.41
1.87
4.03
5.18
5.62
5.65
5.45
5.14
4.79
4.57
4.67
5.21
6.13
7.24
8.30
9.13
9.65
9.86
9.86
9.68
9.41
9.11
8.89
8.78
8.69
8.40
7.60
6.08
3.80
0.98
-2.03
-4.89
-7.40
-9.65
-11.81
-14.11
-16.57
-19.01
-21.06
-22.32
-22.47
-21.37
-19.06
-15.70
-11.59
-7.09
-2.59
1.51
4.88
7.34
8.87
9.58
9.65
9.23
8.51
7.69
6.98
6.57
6.54
6.82
7.22
7.46
7.41
7.07
6.61
6.23
5.98
5.77
5.28
4.28
2.70
0.74
-1.22
-2.79
-3.80
-4.38
-4.85
-5.59
-6.83
-8.51
-10.41
-12.26
-13.92
-15.38
-16.74
-18.03
-19.11
-19.60
-18.98
-16.78
-12.83
-7.40
-1.22
4.70
9.39
12.27
13.33
13.09
12.43
12.12
12.58
13.66
14.73
14.98
13.77
11.10
7.65
4.65
3.34
4.37
7.32
10.69
12.48
10.97
5.54
-2.97
-12.50
-20.74
-26.20
-29.28
-32.37
-38.82
-51.35
-70.53
-94.46
-119.09
-139.64
-151.58
-151.28
-136.39
-106.81
-65.88
-20.71
19.46
47.24
60.91
65.66
70.79
84.13
106.81
132.06
149.13
149.48
131.57
101.12
67.25
37.48
14.62
-3.08
-19.65
-38.43
-60.97
-87.07
-115.13
-142.20
-163.83
-174.67
-169.53
-145.57
-104.09
-51.15
4.18
52.98
89.73
113.77
128.32
137.71
144.50
148.15
145.78
135.00
116.12
92.69
69.73
50.88
36.46
23.61
8.61
-10.42
-31.76
-50.79
-62.49
-64.07
-56.74
-45.15
-35.21
-31.02
-32.90
-37.49
-39.85
-36.16
-25.76
-11.14
3.70
15.41
22.69
26.30
27.96
29.12
30.23
30.89
30.41
28.43
25.25
21.72
18.92
17.70
18.33
20.39
22.94
24.89
25.46
24.48
22.38
19.83
17.42
15.38
13.66
12.01
10.20
8.13
5.77
3.16
0.40
-2.37
-4.95
-7.17
-9.04
-10.80
-12.85
-15.54
-18.95
-22.83
-26.71
-30.11
-32.63
-34.06
-34.18
-32.80
-29.77
-25.13
-19.31
-13.03
-7.16
-2.38
1.03
3.24
4.64
5.68
6.65
7.64
8.60
9.47
10.21
10.80
11.25
11.52
11.59
11.47
11.25
11.03
10.87
10.75
10.56
10.11
9.30
8.17
6.83
5.46
4.11
2.74
1.21
-0.59
-2.66
-4.89
-7.10
-9.20
-11.19
-13.21
-15.40
-17.89
-20.68
-23.70
-26.80
-29.71
-32.04
-33.25
-32.79
-30.27
-25.71
-19.55
-12.57
-5.64
0.57
5.73
9.84
13.05
15.51
17.27
18.31
18.64
18.41
17.81
17.10
16.47
16.03
15.85
15.92
16.19
16.54
16.79
16.81
16.49
15.84
14.89
13.72
12.35
10.84
9.24
7.64
6.16
4.85
3.67
2.51
1.19
-0.41
-2.31
-4.45
-6.68
-8.89
-10.98
-12.93
-14.73
-16.44
-18.10
-19.83
-21.78
-24.08
-26.76
-29.64
-32.29
-34.09
-34.41
-32.78
-29.16
-23.91
-17.70
-11.36
-5.55
-0.65
3.25
6.26
8.51
10.02
10.77
10.73
10.03
9.00
8.07
7.58
7.67
8.14
8.56
8.42
7.33
5.19
2.17
-1.39
-5.35
-9.96
-16.14
-25.19
-38.26
-55.64
-76.27
-97.91
-117.67
-132.89
-141.68
-143.16
-137.45
-125.43
-108.63
-89.21
-69.75
-52.81
-40.37
-33.28
-30.95
-31.66
-33.26
-34.14
-33.87
-33.37
-34.18
-37.57
-43.45
-49.99
-54.04
-52.31
-42.70
-25.09
-1.24
26.11
54.28
81.46
106.72
129.53
149.30
165.09
175.85
180.86
180.21
174.89
166.55
156.89
147.03
137.27
127.23
116.38
104.68
92.92
82.41
74.50
69.82
68.01
67.91
68.15
67.77
66.49
64.61
62.46
60.06
56.94
52.41
45.94
37.46
27.41
16.50
5.46
-5.28
-15.48
-25.07
-33.92
-41.78
-48.32
-53.34
-56.80
-58.93
-60.11
-60.77
-61.26
-61.86
-62.83
-64.43
-66.95
-70.59
-75.28
-80.61
-85.75
-89.62
-91.23
-89.92
-85.65
-78.90
-70.48
-61.24
-51.79
-42.46
-33.42
-24.83
-16.97
-10.21
-4.85
-0.94
1.77
3.73
5.44
7.29
9.48
12.05
14.94
18.04
21.17
24.13
26.66
28.59
29.79
30.29
30.15
29.45
28.25
26.55
24.36
21.73
18.76
15.61
12.49
9.64
7.25
5.40
4.02
2.88
1.69
0.22
-1.60
-3.62
-5.62
-7.44
-9.07
-10.77
-12.90
-15.89
-20.05
-25.47
-31.89
-38.66
-44.75
-48.98
-50.31
-48.13
-42.49
-34.01
-23.73
-12.75
-1.97
7.97
16.70
23.96
29.58
33.42
35.48
35.92
35.11
33.58
31.88
30.50
29.71
29.55
29.91
30.59
31.43
32.31
33.13
33.73
33.92
33.55
32.59
31.15
29.43
27.57
25.62
23.51
21.15
18.53
15.77
13.07
10.56
8.22
5.88
3.32
0.43
-2.73
-5.98
-9.08
-11.95
-14.60
-17.22
-20.03
-23.25
-27.02
-31.44
-36.45
-41.87
-47.24
-51.91
-55.04
-55.80
-53.67
-48.56
-40.90
-31.53
-21.47
-11.67
-2.81
4.73
10.81
15.41
18.63
20.57
21.43
21.48
21.03
20.38
19.76
19.30
19.04
18.96
18.97
18.99
18.87
18.43
17.47
15.83
13.45
10.42
6.98
3.37
-0.21
-3.73
-7.33
-11.24
-15.67
-20.71
-26.14
-31.60
-36.61
-40.75
-43.86
-46.04
-47.64
-49.01
-50.46
-52.02
-53.50
-54.48
-54.35
-52.37
-47.91
-40.62
-30.83
-19.70
-9.07
-0.99
3.15
3.26
0.71
-2.10
-2.71
0.46
7.55
17.47
28.48
39.07
48.41
56.41
63.40
69.83
75.84
81.37
86.15
89.87
92.28
93.14
92.31
89.86
86.07
81.41
76.45
71.62
67.14
63.14
59.70
57.07
55.63
55.67
57.26
60.10
63.59
66.99
69.69
71.17
71.09
69.05
64.58
57.23
46.76
33.37
17.80
1.25
-14.95
-29.56
-41.81
-51.52
-59.01
-64.95
-70.09
-75.02
-80.02
-85.06
-89.79
-93.70
-96.17
-96.59
-94.48
-89.58
-81.97
-72.12
-60.84
-49.06
-37.66
-27.22
-18.02
-10.05
-3.21
2.54
7.15
10.57
12.79
13.96
14.39
14.46
14.49
14.68
15.04
15.45
15.79
15.96
15.96
15.84
15.68
15.53
15.48
15.61
16.07
17.04
18.66
20.90
23.49
25.88
27.33
27.14
24.89
20.54
14.54
7.61
0.53
-6.08
-11.89
-16.85
-21.02
-24.51
-27.34
-29.56
-31.32
-32.85
-34.49
-36.54
-39.26
-42.75
-47.02
-51.85
-56.77
-60.95
-63.34
-62.90
-58.88
-51.12
-40.18
-27.13
-13.27
0.13
12.08
21.85
29.04
33.51
35.52
35.80
35.47
35.73
37.48
40.96
45.58
50.27
53.84
55.46
54.90
52.40
48.43
43.33
37.28
30.32
22.57
14.32
6.01
-1.88
-9.07
-15.51
-21.37
-26.92
-32.37
-37.77
-43.09
-48.22
-53.16
-58.04
-63.14
-68.78
-75.15
-82.22
-89.69
-97.20
-104.47
-111.51
-118.49
-125.61
-132.90
-140.16
-147.08
-153.35
-158.70
-162.66
-164.31
-162.17
-154.55
-140.26
-119.34
-93.33
-64.94
-37.29
-12.98
6.50
20.82
30.55
36.67
40.36
42.78
45.07
48.15
52.42
57.36
61.52
62.84
59.36
50.12
35.73
18.39
1.20
-12.85
-21.86
-25.44
-24.42
-20.10
-13.45
-4.63
6.79
21.41
39.31
59.77
81.39
102.49
121.61
137.78
150.58
159.79
165.11
166.16
162.84
155.82
146.66
137.20
128.42
119.63
108.49
92.15
68.69
38.20
2.78
-34.35
-70.10
-102.14
-128.88
-148.97
-161.07
-164.14
-158.17
-144.62
-126.17
-105.84
-85.96
-67.65
-50.96
-35.51
-21.10
-8.04
3.14
12.13
19.30
25.80
33.32
43.41
56.86
73.39
91.74
110.03
126.34
139.13
147.41
150.76
149.26
143.40
134.01
122.12
108.77
94.91
81.28
68.49
57.00
47.10
38.83
32.00
26.24
21.24
16.91
13.45
11.13
10.15
10.38
11.44
12.90
14.56
16.53
19.15
22.78
27.51
33.08
38.94
44.44
49.07
52.52
54.62
55.33
54.62
52.51
49.15
44.92
40.42
36.31
33.07
30.76
28.98
26.98
24.06
19.85
14.43
8.26
1.85
-4.45
-10.54
-16.52
-22.48
-28.49
-34.55
-40.59
-46.40
-51.46
-55.00
-56.15
-54.44
-50.18
-44.59
-39.45
-36.49
-36.59
-39.35
-43.17
-45.77
-44.91
-39.08
-27.87
-11.98
7.07
27.40
47.20
64.97
79.65
90.42
96.58
97.56
93.04
83.15
68.54
50.33
29.96
9.02
-10.87
-28.07
-41.14
-49.01
-51.36
-48.65
-42.09
-33.20
-23.44
-13.91
-5.39
1.51
6.24
8.39
7.89
5.17
1.11
-3.28
-7.24
-10.47
-13.08
-15.34
-17.42
-19.22
-20.52
-21.09
-20.86
-19.85
-18.20
-16.06
-13.59
-11.06
-8.75
-6.91
-5.62
-4.75
-4.04
-3.33
-2.74
-2.67
-3.61
-5.90
-9.48
-13.90
-18.58
-23.08
-27.29
-31.41
-35.79
-40.68
-46.05
-51.61
-56.92
-61.60
-65.51
-68.81
-71.95
-75.37
-79.26
-83.28
-86.63
-88.32
-87.61
-84.33
-78.76
-71.23
-61.77
-50.19
-36.52
-21.42
-6.26
7.55
19.31
29.55
39.64
50.98
64.08
78.31
92.39
105.21
116.49
126.88
137.45
149.10
162.06
175.82
189.30
201.28
210.77
217.41
221.43
223.29
223.01
219.57
210.90
194.72
169.75
136.82
99.02
60.79
26.45
-1.31
-22.05
-37.37
-49.79
-61.47
-73.23
-84.33
-93.11
-98.14
-99.37
-98.47
-98.28
-101.59
-110.08
-123.95
-142.32
-163.76
-186.57
-208.53
-226.67
-237.52
-238.15
-227.48
-207.01
-180.39
-151.94
-125.04
-101.17
-80.23
-61.50
-44.71
-30.37
-19.44
-12.64
-9.90
-10.29
-12.30
-14.38
-15.37
-14.74
-12.59
-9.45
-5.92
-2.37
1.12
4.77
8.72
12.93
17.13
21.06
24.66
28.10
31.66
35.44
39.08
41.83
42.77
41.15
36.79
30.13
22.12
13.84
6.19
-0.36
-5.86
-10.68
-15.20
-19.55
-23.49
-26.40
-27.62
-26.57
-22.98
-16.88
-8.45
2.04
14.18
27.15
39.38
48.57
52.11
47.94
35.48
16.16
-6.87
-29.67
-48.62
-61.30
-66.72
-64.86
-56.16
-41.31
-21.61
0.32
20.49
34.41
38.98
34.35
24.53
15.97
14.92
24.74
44.84
71.66
101.00
130.15
158.47
186.57
214.48
240.57
261.54
273.48
272.99
257.92
227.54
182.65
125.99
62.47
-1.13
-57.40
-100.26
-126.52
-136.48
-133.21
-121.11
-104.38
-86.32
-69.23
-54.80
-44.40
-38.92
-38.54
-42.41
-48.79
-55.55
-60.80
-63.38
-62.93
-59.79
-54.53
-47.70
-39.70
-30.87
-21.72
-13.03
-5.84
-1.14
0.35
-1.45
-6.00
-12.20
-18.71
-24.33
-28.32
-30.56
-31.51
-31.92
-32.50
-33.59
-35.06
-36.47
-37.40
-37.76
-37.86
-38.37
-39.99
-43.18
-48.01
-54.17
-61.14
-68.33
-75.19
-81.25
-86.09
-89.33
-90.72
-90.15
-87.68
-83.50
-77.76
-70.53
-61.73
-51.34
-39.58
-27.11
-15.00
-4.40
3.84
9.52
13.07
15.23
16.58
17.23
16.82
14.84
11.06
5.79
-0.29
-6.44
-12.25
-17.84
-23.67
-30.22
-37.67
-45.90
-54.57
-63.57
-73.05
-83.44
-95.06
-107.87
-121.29
-134.46
-146.72
-157.94
-168.73
-180.08
-192.71
-206.53
-220.53
-233.26
-243.39
-250.10
-252.84
-250.85
-242.73
-226.54
-200.63
-164.45
-118.97
-66.23
-8.54
52.12
113.99
174.79
231.09
278.61
313.32
332.95
337.82
330.52
314.61
293.22
268.28
240.66
210.88
179.92
149.37
121.07
96.56
76.64
61.27
49.92
41.91
36.74
34.37
35.15
39.54
47.78
59.53
73.68
88.60
102.52
113.97
122.00
126.21
126.66
123.70
117.91
110.12
101.34
92.70
85.18
79.42
75.52
73.13
71.57
70.13
68.33
65.97
63.05
59.62
55.67
51.09
45.86
40.15
34.45
29.33
25.22
22.14
19.62
16.94
13.55
9.36
4.83
0.80
-1.92
-2.84
-1.95
0.40
3.74
7.72
12.20
17.21
22.73
28.62
34.62
40.54
46.44
52.72
59.94
68.55
78.56
89.46
100.49
110.97
120.62
129.46
137.53
144.42
149.13
150.38
147.26
139.75
128.82
115.97
102.44
88.64
74.03
57.54
38.05
14.87
-12.23
-42.99
-76.53
-111.26
-144.74
-173.96
-196.19
-209.89
-215.33
-214.52
-210.37
-205.54
-201.55
-198.62
-196.15
-193.37
-189.92
-185.87
-181.44
-176.77
-171.87
-166.87
-162.30
-159.08
-158.19
-160.10
-164.25
-169.00
-171.98
-170.89
-164.18
-151.62
-134.33
-114.36
-94.05
-75.28
-58.89
-44.60
-31.16
-16.99
-0.79
17.85
38.31
59.19
78.80
95.75
109.28
119.29
126.13
130.27
132.06
131.76
129.63
126.03
121.36
115.86
109.47
101.88
92.78
82.22
70.81
59.60
49.68
41.79
36.14
32.40
29.99
28.28
26.61
24.28
20.52
14.57
6.11
-4.53
-16.22
-27.29
-36.07
-41.50
-43.47
-42.76
-40.63
-38.21
-36.05
-34.03
-31.75
-28.92
-25.80
-23.13
-21.74
-22.10
-24.01
-26.72
-29.32
-31.28
-32.66
-33.98
-35.83
-38.37
-41.16
-43.35
-44.11
-43.11
-40.65
-37.60
-34.95
-33.46
-33.35
-34.34
-35.85
-37.25
-38.10
-38.20
-37.59
-36.34
-34.48
-32.01
-28.88
-25.04
-20.42
-14.82
-7.87
0.89
11.70
24.27
37.63
50.25
60.54
67.44
70.78
71.19
69.60
66.71
62.65
57.14
49.91
41.09
31.31
21.50
12.48
4.56
-2.44
-9.08
-15.89
-23.18
-30.89
-38.70
-46.12
-52.75
-58.30
-62.66
-65.97
-68.44
-70.33
-71.70
-72.36
-71.86
-69.64
-65.23
-58.45
-49.58
-39.43
-29.23
-20.40
-14.15
-11.05
-10.77
-12.15
-13.62
-13.73
-11.64
-7.28
-1.20
5.75
12.68
18.77
23.38
25.99
26.39
24.80
21.91
18.71
16.19
14.93
15.01
16.04
17.43
18.65
19.47
19.87
20.04
20.16
20.36
20.71
21.22
21.93
22.81
23.86
24.95
25.91
26.57
26.83
26.81
26.77
27.07
27.99
29.63
31.83
34.23
36.36
37.84
38.45
38.21
37.27
35.85
34.11
32.14
29.91
27.44
24.81
22.22
19.93
18.10
16.72
15.57
14.33
12.66
10.44
7.82
5.12
2.76
1.04
0.12
-0.06
0.24
0.54
0.10
-1.94
-6.39
-13.57
-23.15
-34.00
-44.47
-52.85
-57.84
-58.89
-56.22
-50.58
-42.93
-34.22
-25.16
-16.22
-7.68
0.34
7.76
14.54
20.64
26.04
30.71
34.66
37.86
40.29
41.98
43.06
43.71
44.11
44.27
43.89
42.46
39.41
34.45
27.77
20.16
12.74
6.65
2.66
0.95
1.08
2.17
3.28
3.64
2.95
1.33
-0.78
-2.86
-4.44
-5.20
-5.01
-3.86
-1.88
0.70
3.54
6.23
8.41
9.82
10.43
10.44
10.16
9.91
9.95
10.40
11.24
12.38
13.68
14.98
16.13
16.95
17.29
16.97
15.83
13.69
10.43
5.97
0.42
-5.94
-12.61
-18.98
-24.47
-28.79
-32.02
-34.54
-36.84
-39.27
-41.84
-44.26
-46.20
-47.45
-48.08
-48.36
-48.57
-48.80
-48.96
-48.86
-48.38
-47.60
-46.78
-46.24
-46.25
-46.97
-48.45
-50.72
-53.83
-57.90
-63.07
-69.41
-76.78
-84.82
-92.91
-100.34
-106.33
-110.17
-111.18
-108.65
-101.97
-90.81
-75.51
-57.34
-38.49
-21.56
-8.78
-1.37
0.84
-0.86
-4.53
-8.16
-9.91
-8.34
-2.37
8.48
23.85
42.37
61.84
79.85
94.47
104.89
111.48
115.37
117.81
119.69
121.31
122.61
123.37
123.44
122.74
121.22
118.82
115.46
111.17
106.11
100.62
95.14
90.13
85.93
82.71
80.36
78.53
76.70
74.43
71.47
67.93
64.14
60.62
57.76
55.94
55.45
56.58
59.45
63.86
69.00
73.62
76.40
76.42
73.50
68.18
61.24
53.25
44.28
34.01
22.11
8.58
-6.19
-21.58
-37.03
-52.07
-66.20
-78.61
-88.14
-93.50
-93.74
-88.69
-79.23
-67.06
-54.30
-42.94
-34.40
-29.28
-27.45
-28.23
-30.66
-33.79
-36.88
-39.48
-41.46
-42.91
-44.00
-44.81
-45.31
-45.31
-44.61
-43.00
-40.43
-36.85
-32.17
-26.20
-18.66
-9.36
1.69
14.14
27.43
41.01
54.42
67.32
79.20
89.32
96.65
100.22
99.49
94.68
86.72
76.93
66.57
56.46
46.93
37.85
28.94
19.95
10.79
1.58
-7.35
-15.60
-22.79
-28.68
-33.28
-36.78
-39.52
-41.79
-43.82
-45.75
-47.66
-49.68
-51.88
-54.26
-56.61
-58.56
-59.67
-59.68
-58.59
-56.80
-54.89
-53.40
-52.58
-52.29
-52.19
-51.98
-51.71
-51.75
-52.53
-54.24
-56.63
-59.06
-60.84
-61.55
-61.19
-60.06
-58.47
-56.43
-53.66
-49.69
-44.24
-37.30
-29.23
-20.49
-11.48
-2.35
6.81
15.82
24.22
31.27
36.20
38.49
38.19
35.91
32.67
29.58
27.45
26.67
27.22
28.68
30.53
32.15
33.08
33.08
32.21
30.84
29.52
28.83
29.15
30.57
32.78
35.17
36.92
37.25
35.64
31.99
26.72
20.57
14.41
8.96
4.60
1.40
-0.79
-2.10
-2.51
-1.87
0.01
3.17
7.27
11.65
15.52
18.29
19.81
20.46
20.98
22.10
24.19
27.10
30.35
33.30
35.41
36.35
35.90
33.95
30.48
25.65
19.81
13.51
7.26
1.44
-3.78
-8.45
-12.63
-16.37
-19.74
-22.88
-26.03
-29.49
-33.48
-37.94
-42.53
-46.76
-50.18
-52.62
-54.20
-55.26
-56.14
-57.00
-57.82
-58.44
-58.71
-58.53
-57.87
-56.67
-54.74
-51.81
-47.65
-42.22
-35.80
-28.95
-22.34
-16.60
-12.10
-8.89
-6.74
-5.17
-3.73
-2.04
0.01
2.35
4.92
7.81
11.42
16.33
22.98
31.38
40.97
50.74
59.54
66.48
71.13
73.49
73.84
72.52
69.78
65.76
60.51
53.99
46.15
37.04
26.88
16.20
5.74
-3.68
-11.47
-17.36
-21.49
-24.13
-25.64
-26.29
-26.28
-25.94
-25.69
-26.14
-27.88
-31.30
-36.43
-42.91
-50.02
-56.83
-62.32
-65.61
-66.13
-63.81
-59.12
-53.01
-46.63
-41.10
-37.13
-34.99
-34.45
-35.01
-36.11
-37.27
-38.23
-38.97
-39.63
-40.44
-41.62
-43.27
-45.23
-47.16
-48.57
-48.98
-48.12
-46.04
-43.15
-40.12
-37.72
-36.52
-36.68
-37.76
-38.84
-38.77
-36.64
-32.17
-25.90
-18.95
-12.59
-7.71
-4.44
-2.26
-0.26
2.33
5.81
10.00
14.37
18.46
22.04
25.15
27.87
30.16
31.74
32.30
31.68
30.07
28.06
26.34
25.46
25.57
26.48
27.76
29.04
30.17
31.20
32.36
33.78
35.43
37.08
38.26
38.42
37.06
33.93
29.07
22.90
16.02
9.04
2.40
-3.74
-9.38
-14.61
-19.49
-24.02
-28.15
-31.82
-34.97
-37.52
-39.31
-40.18
-40.03
-38.87
-36.87
-34.35
-31.66
-29.14
-27.09
-25.73
-25.25
-25.73
-27.17
-29.43
-32.28
-35.44
-38.62
-41.50
-43.79
-45.11
-45.15
-43.62
-40.48
-35.85
-30.09
-23.63
-16.88
-10.18
-3.77
2.12
7.28
11.49
14.59
16.52
17.41
17.53
17.25
16.96
16.90
17.23
17.90
18.85
19.98
21.22
22.50
23.68
24.59
25.01
24.84
24.09
22.94
21.61
20.25
18.95
17.70
16.49
15.32
14.27
13.36
12.57
11.81
11.00
10.07
9.01
7.83
6.54
5.11
3.50
1.66
-0.40
-2.67
-5.04
-7.42
-9.77
-12.09
-14.49
-17.09
-20.03
-23.37
-27.02
-30.68
-33.87
-36.00
-36.51
-35.02
-31.51
-26.30
-19.99
-13.26
-6.71
-0.70
4.61
9.23
13.14
16.31
18.68
20.26
21.20
21.74
22.07
22.34
22.59
22.78
22.92
23.09
23.41
23.96
24.72
25.50
26.07
26.26
26.04
25.50
24.81
24.13
23.52
22.95
22.34
21.57
20.60
19.40
17.92
16.08
13.76
10.88
7.50
3.81
0.12
-3.26
-6.19
-8.69
-10.97
-13.24
-15.62
-18.09
-20.54
-22.86
-25.03
-27.22
-29.67
-32.61
-36.10
-39.95
-43.65
-46.45
-47.53
-46.23
-42.29
-35.95
-27.87
-18.96
-10.09
-1.98
4.98
10.61
14.92
18.05
20.22
21.73
22.89
24.00
25.28
26.84
28.68
30.68
32.68
34.52
36.07
37.26
38.08
38.53
38.65
38.44
37.83
36.75
35.17
33.10
30.63
27.92
25.10
22.25
19.40
16.50
13.47
10.29
7.00
3.75
0.74
-1.87
-4.04
-5.85
-7.44
-8.92
-10.26
-11.38
-12.23
-12.87
-13.51
-14.30
-15.24
-16.03
-16.23
-15.47
-13.75
-11.38
-8.90
-6.70
-4.82
-2.88
-0.40
2.99
7.31
12.24
17.29
21.99
25.98
29.08
31.19
32.25
32.27
31.33
29.63
27.41
24.92
22.34
19.78
17.29
14.83
12.36
9.85
7.30
4.83
2.62
0.84
-0.44
-1.33
-2.07
-2.96
-4.20
-5.85
-7.80
-9.88
-11.95
-13.99
-16.05
-18.25
-20.66
-23.28
-26.06
-28.87
-31.64
-34.25
-36.59
-38.56
-40.10
-41.24
-42.14
-42.99
-43.89
-44.77
-45.20
-44.56
-42.17
-37.61
-30.86
-22.37
-12.91
-3.23
6.04
14.57
22.28
29.14
35.11
40.14
44.15
47.17
49.39
51.06
52.40
53.48
54.23
54.44
54.01
52.95
51.46
49.79
48.16
46.66
45.23
43.74
42.06
40.14
37.99
35.69
33.30
30.83
28.29
25.61
22.68
19.39
15.68
11.50
6.89
1.95
-3.14
-8.19
-13.07
-17.78
-22.48
-27.43
-32.92
-39.06
-45.62
-51.99
-57.29
-60.60
-61.28
-59.19
-54.77
-48.84
-42.33
-35.92
-29.87
-24.04
-18.15
-12.03
-5.87
-0.16
4.54
7.91
9.99
11.23
12.15
13.18
14.45
15.87
17.33
18.81
20.43
22.30
24.47
26.76
28.89
30.49
31.32
31.31
30.57
29.29
27.72
26.08
24.50
22.98
21.39
19.52
17.12
14.08
10.47
6.56
2.73
-0.69
-3.51
-5.85
-8.01
-10.48
-13.71
-18.00
-23.36
-29.48
-35.68
-41.03
-44.49
-45.21
-42.77
-37.40
-29.90
-21.40
-12.99
-5.40
1.13
6.70
11.58
15.90
19.59
22.46
24.38
25.42
25.85
26.04
26.28
26.71
27.28
27.79
28.10
28.19
28.14
28.10
28.14
28.22
28.23
27.99
27.39
26.37
24.96
23.21
21.19
18.97
16.63
14.23
11.74
9.11
6.21
2.98
-0.54
-4.18
-7.67
-10.77
-13.36
-15.49
-17.37
-19.26
-21.43
-24.11
-27.42
-31.38
-35.84
-40.38
-44.28
-46.66
-46.65
-43.72
-37.84
-29.58
-19.88
-9.76
-0.05
8.73
16.37
22.79
27.93
31.70
34.07
35.06
34.87
33.86
32.43
31.00
29.87
29.16
28.80
28.64
28.48
28.26
28.01
27.84
27.81
27.88
27.81
27.31
26.12
24.10
21.36
18.15
14.82
11.66
8.88
6.48
4.35
2.28
0.06
-2.46
-5.31
-8.39
-11.54
-14.59
-17.45
-20.16
-22.84
-25.68
-28.86
-32.48
-36.47
-40.55
-44.15
-46.52
-46.86
-44.62
-39.69
-32.45
-23.69
-14.35
-5.21
3.21
10.66
17.02
22.23
26.18
28.84
30.29
30.79
30.68
30.30
29.85
29.41
28.95
28.48
28.05
27.75
27.69
27.88
28.21
28.49
28.46
27.94
26.83
25.20
23.20
21.06
18.97
16.99
15.11
13.20
11.13
8.85
6.37
3.81
1.27
-1.18
-3.58
-5.99
-8.51
-11.21
-14.06
-17.04
-20.06
-23.07
-26.04
-28.99
-31.96
-35.08
-38.52
-42.46
-46.91
-51.63
-56.04
-59.25
-60.35
-58.69
-54.10
-47.08
-38.57
-29.68
-21.34
-14.04
-7.79
-2.35
2.57
7.13
11.31
15.04
18.31
21.22
24.00
26.85
29.86
33.01
36.25
39.53
42.84
46.17
49.40
52.29
54.51
55.79
55.99
55.13
53.38
50.96
48.11
44.97
41.64
38.18
34.58
30.83
26.92
22.90
18.84
14.92
11.30
8.10
5.35
3.02
1.00
-0.81
-2.50
-4.14
-5.75
-7.39
-9.09
-10.91
-12.93
-15.26
-18.01
-21.29
-25.09
-29.26
-33.44
-37.05
-39.44
-39.97
-38.27
-34.34
-28.64
-21.88
-14.88
-8.37
-2.80
1.65
5.02
7.42
9.00
9.85
10.10
9.88
9.39
8.89
8.60
8.69
9.20
10.02
11.01
12.04
13.08
14.15
15.29
16.47
17.51
18.22
18.42
18.11
17.43
16.65
16.02
15.68
15.58
15.54
15.35
14.82
13.91
12.70
11.39
10.16
9.13
8.29
7.49
6.52
5.18
3.34
1.01
-1.75
-4.84
-8.20
-11.78
-15.54
-19.48
-23.58
-27.87
-32.29
-36.66
-40.61
-43.62
-45.07
-44.49
-41.67
-36.77
-30.29
-22.95
-15.47
-8.48
-2.40
2.62
6.60
9.69
12.08
13.92
15.37
16.48
17.31
17.86
18.14
18.19
18.03
17.68
17.18
16.55
15.85
15.17
14.56
14.07
13.62
13.04
12.14
10.72
8.75
6.35
3.77
1.32
-0.78
-2.48
-3.90
-5.23
-6.69
-8.34
-10.17
-12.02
-13.77
-15.30
-16.62
-17.81
-18.98
-20.27
-21.77
-23.50
-25.41
-27.37
-29.20
-30.75
-31.96
-32.87
-33.66
-34.53
-35.63
-36.98
-38.43
-39.70
-40.39
-40.05
-38.27
-34.83
-29.72
-23.21
-15.84
-8.26
-1.09
5.24
10.48
14.62
17.73
19.92
21.29
21.93
21.95
21.52
20.85
20.16
19.60
19.24
19.07
19.03
19.08
19.23
19.48
19.82
20.15
20.31
20.08
19.33
18.02
16.27
14.26
12.22
10.30
8.58
7.06
5.70
4.42
3.11
1.67
0.01
-1.90
-4.00
-6.17
-8.25
-10.11
-11.72
-13.12
-14.41
-15.69
-17.05
-18.54
-20.26
-22.31
-24.76
-27.57
-30.42
-32.79
-34.00
-33.48
-30.97
-26.57
-20.81
-14.33
-7.78
-1.62
3.85
8.49
12.21
14.95
16.71
17.55
17.61
17.07
16.18
15.18
14.29
13.70
13.52
13.74
14.24
14.81
15.27
15.50
15.49
15.29
14.95
14.49
13.84
12.93
11.76
10.42
9.04
7.73
6.52
5.39
4.25
3.01
1.64
0.15
-1.40
-2.97
-4.49
-5.90
-7.19
-8.40
-9.65
-11.09
-12.83
-14.90
-17.17
-19.43
-21.46
-23.22
-24.84
-26.54
-28.56
-30.98
-33.64
-36.13
-37.88
-38.34
-37.07
-33.94
-29.12
-23.04
-16.29
-9.48
-3.11
2.47
7.10
10.74
13.41
15.21
16.23
16.65
16.69
16.61
16.63
16.90
17.44
18.18
18.97
19.67
20.21
20.58
20.77
20.78
20.60
20.18
19.53
18.66
17.62
16.46
15.20
13.83
12.32
10.69
8.99
7.30
5.71
4.29
3.04
1.95
0.96
0.05
-0.86
-1.79
-2.79
-3.91
-5.16
-6.57
-8.14
-9.82
-11.57
-13.32
-15.04
-16.68
-18.31
-19.99
-21.79
-23.80
-26.08
-28.61
-31.30
-33.93
-36.18
-37.58
-37.71
-36.21
-32.98
-28.20
-22.29
-15.83
-9.40
-3.48
1.65
5.86
9.19
11.71
13.53
14.73
15.43
15.78
15.92
16.02
16.19
16.46
16.79
17.13
17.46
17.78
18.18
18.70
19.32
19.92
20.27
20.18
19.56
18.46
17.08
15.69
14.46
13.42
12.47
11.44
10.24
8.90
7.52
6.25
5.11
4.03
2.89
1.61
0.21
-1.20
-2.47
-3.51
-4.40
-5.30
-6.38
-7.76
-9.41
-11.23
-13.07
-14.89
-16.68
-18.52
-20.48
-22.59
-24.84
-27.20
-29.53
-31.62
-33.08
-33.46
-32.35
-29.53
-25.15
-19.65
-13.65
-7.74
-2.37
2.27
6.09
9.08
11.24
12.57
13.16
13.17
12.87
12.53
12.34
12.47
12.95
13.76
14.79
15.90
16.89
17.61
17.96
17.92
17.58
17.05
16.44
15.79
15.07
14.21
13.20
12.04
10.77
9.47
8.20
6.98
5.82
4.70
3.61
2.55
1.50
0.44
-0.61
-1.69
-2.77
-3.91
-5.13
-6.49
-8.01
-9.65
-11.39
-13.16
-14.97
-16.82
-18.74
-20.73
-22.79
-24.90
-27.12
-29.51
-32.10
-34.74
-37.06
-38.49
-38.43
-36.51
-32.70
-27.38
-21.19
-14.78
-8.70
-3.24
1.48
5.45
8.69
11.22
13.05
14.26
15.00
15.48
15.88
16.30
16.76
17.19
17.54
17.80
18.04
18.36
18.79
19.30
19.74
19.99
19.96
19.69
19.26
18.79
18.28
17.69
16.93
15.96
14.84
13.64
12.45
11.30
10.18
9.06
7.97
6.94
6.04
5.28
4.54
3.70
2.61
1.22
-0.40
-2.07
-3.62
-4.95
-6.09
-7.13
-8.25
-9.54
-11.03
-12.66
-14.33
-15.93
-17.42
-18.78
-20.09
-21.47
-23.12
-25.20
-27.75
-30.60
-33.40
-35.60
-36.66
-36.14
-33.84
-29.85
-24.53
-18.43
-12.17
-6.29
-1.15
3.11
6.55
9.29
11.45
13.08
14.21
14.88
15.22
15.41
15.59
15.85
16.20
16.60
17.10
17.75
18.55
19.42
20.20
20.66
20.69
20.31
19.67
18.90
18.08
17.19
16.15
14.94
13.62
12.35
11.24
10.32
9.51
8.71
7.83
6.91
6.06
5.37
4.86
4.42
3.87
3.04
1.88
0.48
-0.98
-2.36
-3.63
-4.84
-6.09
-7.44
-8.88
-10.35
-11.83
-13.34
-14.94
-16.67
-18.52
-20.41
-22.33
-24.25
-26.21
-28.17
-29.98
-31.31
-31.78
-31.04
-28.90
-25.43
-20.92
-15.85
-10.70
-5.89
-1.67
1.89
4.80
7.15
8.97
10.28
11.12
11.55
11.74
11.86
12.05
12.39
12.83
13.30
13.74
14.12
14.49
14.89
15.32
15.71
15.91
15.77
15.20
14.18
12.82
11.32
9.88
8.66
7.73
7.04
6.46
5.83
5.00
3.91
2.61
1.20
-0.19
-1.48
-2.67
-3.83
-5.05
-6.38
-7.85
-9.40
-11.02
-12.62
-14.16
-15.60
-16.96
-18.37
-20.06
-22.23
-24.96
-28.07
-31.15
-33.62
-34.93
-34.71
-32.89
-29.62
-25.23
-20.10
-14.60
-9.08
-3.83
0.88
4.88
8.07
10.46
12.17
13.33
14.11
14.67
15.12
15.51
15.88
16.24
16.58
16.90
17.20
17.45
17.66
17.82
17.97
18.08
18.08
17.88
17.41
16.65
15.65
14.57
13.52
12.60
11.78
10.99
10.18
9.30
8.40
7.54
6.76
6.02
5.28
4.38
3.23
1.78
0.05
-1.82
-3.64
-5.27
-6.67
-7.89
-9.10
-10.49
-12.17
-14.18
-16.46
-18.85
-21.18
-23.32
-25.19
-26.82
-28.36
-30.00
-31.94
-34.20
-36.61
-38.80
-40.25
-40.42
-38.90
-35.58
-30.64
-24.61
-18.14
-11.90
-6.38
-1.78
1.94
4.91
7.27
9.06
10.24
10.85
11.05
11.12
11.33
11.79
12.43
13.01
13.36
13.42
13.33
13.33
13.57
14.10
14.78
15.40
15.79
15.92
15.85
15.74
15.73
15.91
16.32
16.91
17.57
18.14
18.51
18.56
18.24
17.55
16.53
15.24
13.76
12.18
10.60
9.11
7.79
6.65
5.67
4.77
3.89
3.00
2.12
1.31
0.61
0.02
-0.55
-1.19
-2.07
-3.30
-4.94
-7.00
-9.40
-12.05
-14.84
-17.64
-20.26
-22.43
-23.84
-24.22
-23.43
-21.54
-18.78
-15.45
-11.79
-7.98
-4.04
-0.02
4.04
7.97
11.56
14.58
16.85
18.33
19.13
19.41
19.38
19.16
18.78
18.19
17.36
16.29
15.12
14.10
13.49
13.52
14.29
15.79
17.89
20.33
22.81
24.97
26.47
27.13
26.92
26.03
24.74
23.36
22.05
20.82
19.59
18.24
16.74
15.16
13.64
12.32
11.20
10.18
9.04
7.61
5.78
3.62
1.29
-1.03
-3.19
-5.18
-7.05
-8.95
-11.01
-13.25
-15.58
-17.80
-19.75
-21.36
-22.66
-23.88
-25.24
-26.97
-29.12
-31.55
-33.94
-35.83
-36.78
-36.46
-34.71
-31.63
-27.50
-22.70
-17.61
-12.53
-7.71
-3.32
0.52
3.69
6.14
7.85
8.86
9.32
9.41
9.35
9.32
9.43
9.72
10.13
10.67
11.34
12.19
13.27
14.55
15.91
17.10
17.88
18.09
17.72
16.91
15.88
14.85
13.96
13.20
12.50
11.76
10.92
10.00
9.07
8.21
7.43
6.68
5.88
4.97
3.98
2.98
2.03
1.13
0.18
-0.94
-2.31
-3.91
-5.65
-7.41
-9.12
-10.77
-12.44
-14.18
-15.92
-17.59
-19.07
-20.38
-21.69
-23.26
-25.25
-27.61
-30.04
-32.03
-33.07
-32.80
-31.07
-27.99
-23.83
-18.96
-13.78
-8.69
-4.00
0.08
3.47
6.17
8.22
9.65
10.51
10.91
11.02
11.08
11.28
11.73
12.40
13.14
13.79
14.24
14.50
14.65
14.80
14.99
15.13
15.11
14.85
14.37
13.86
13.55
13.58
13.97
14.53
14.97
15.08
14.74
14.02
13.05
12.01
11.00
10.08
9.25
8.50
7.77
7.03
6.24
5.36
4.40
3.36
2.31
1.27
0.30
-0.59
-1.42
-2.22
-3.07
-4.01
-5.03
-6.15
-7.36
-8.64
-9.96
-11.31
-12.60
-13.81
-14.95
-16.06
-17.22
-18.46
-19.77
-21.08
-22.37
-23.66
-25.00
-26.48
-28.12
-29.87
-31.55
-32.94
-33.81
-33.89
-33.00
-31.02
-27.99
-24.11
-19.72
-15.21
-10.91
-7.02
-3.61
-0.68
1.78
3.79
5.33
6.40
7.08
7.50
7.83
8.23
8.83
9.66
10.71
11.86
12.98
13.95
14.68
15.12
15.26
15.14
14.80
14.32
13.73
13.10
12.45
11.82
11.25
10.77
10.32
9.80
9.11
8.14
6.87
5.40
3.94
2.71
1.90
1.49
1.37
1.31
1.06
0.49
-0.43
-1.61
-2.88
-4.11
-5.21
-6.18
-7.09
-8.01
-9.01
-10.13
-11.38
-12.71
-14.07
-15.38
-16.65
-17.96
-19.45
-21.25
-23.39
-25.71
-27.88
-29.50
-30.18
-29.67
-27.93
-25.04
-21.23
-16.75
-11.95
-7.14
-2.64
1.32
4.63
7.25
9.24
10.66
11.54
11.96
12.06
12.05
12.20
12.73
13.61
14.67
15.62
16.19
16.34
16.18
15.96
15.83
15.79
15.71
15.45
14.96
14.33
13.71
13.18
12.71
12.19
11.49
10.57
9.53
8.55
7.78
7.29
7.00
6.77
6.48
6.05
5.50
4.85
4.10
3.22
2.15
0.91
-0.40
-1.64
-2.71
-3.62
-4.47
-5.43
-6.58
-7.93
-9.39
-10.87
-12.35
-13.85
-15.41
-16.97
-18.43
-19.67
-20.69
-21.65
-22.82
-24.48
-26.71
-29.30
-31.85
-33.81
-34.69
-34.18
-32.20
-28.88
-24.49
-19.42
-14.08
-8.87
-4.13
-0.04
3.34
6.06
8.22
9.93
11.27
12.30
13.13
13.85
14.55
15.31
16.16
17.09
18.09
19.09
20.02
20.80
21.31
21.49
21.35
20.95
20.37
19.70
18.96
18.17
17.32
16.42
15.49
14.57
13.67
12.77
11.86
10.90
9.91
8.92
7.96
7.09
6.33
5.61
4.87
4.03
3.09
2.14
1.26
0.53
-0.12
-0.78
-1.57
-2.52
-3.59
-4.70
-5.82
-7.03
-8.42
-10.09
-11.99
-13.99
-15.88
-17.48
-18.74
-19.71
-20.53
-21.42
-22.57
-24.14
-26.19
-28.64
-31.24
-33.54
-35.02
-35.19
-33.72
-30.63
-26.26
-21.13
-15.81
-10.74
-6.12
-2.03
1.57
4.65
7.12
8.92
10.09
10.76
11.18
11.57
12.08
12.73
13.50
14.35
15.26
16.21
17.15
18.01
18.66
19.06
19.19
19.04
18.64
17.97
17.01
15.81
14.53
13.37
12.48
11.90
11.51
11.09
10.47
9.64
8.69
7.82
7.15
6.71
6.40
6.07
5.59
4.87
3.88
2.65
1.22
-0.30
-1.82
-3.27
-4.68
-6.13
-7.73
-9.56
-11.60
-13.71
-15.75
-17.58
-19.17
-20.62
-22.10
-23.79
-25.81
-28.20
-30.86
-33.56
-35.99
-37.78
-38.54
-37.96
-35.86
-32.27
-27.44
-21.75
-15.68
-9.70
-4.20
0.55
4.39
7.34
9.51
11.11
12.35
13.42
14.43
15.39
16.29
17.14
18.03
19.04
20.22
21.49
22.70
23.59
23.96
23.77
23.09
22.17
21.25
20.46
19.78
19.07
18.18
17.06
15.79
14.57
13.56
12.83
12.26
11.67
10.94
10.10
9.27
8.61
8.17
7.83
7.42
6.81
5.99
5.09
4.27
3.61
3.07
2.53
1.83
0.90
-0.23
-1.52
-2.85
-4.15
-5.36
-6.49
-7.56
-8.69
-10.03
-11.69
-13.72
-16.03
-18.42
-20.65
-22.60
-24.26
-25.83
-27.53
-29.58
-32.01
-34.65
-37.07
-38.73
-39.08
-37.76
-34.70
-30.14
-24.60
-18.65
-12.83
-7.50
-2.84
1.15
4.54
7.36
9.66
11.39
12.57
13.25
13.60
13.86
14.28
14.99
16.02
17.21
18.42
19.50
20.43
21.22
21.89
22.43
22.76
22.82
22.56
22.03
21.33
20.54
19.73
18.93
18.16
17.47
16.92
16.51
16.17
15.78
15.23
14.46
13.58
12.73
12.06
11.62
11.32
11.00
10.55
9.93
9.22
8.49
7.77
7.01
6.15
5.17
4.10
3.03
2.00
0.98
-0.08
-1.25
-2.52
-3.86
-5.20
-6.51
-7.85
-9.28
-10.85
-12.52
-14.26
-15.95
-17.54
-19.04
-20.50
-22.00
-23.64
-25.47
-27.53
-29.81
-32.24
-34.63
-36.65
-37.86
-37.83
-36.22
-32.93
-28.17
-22.42
-16.27
-10.28
-4.88
-0.29
3.43
6.31
8.37
9.67
10.37
10.69
10.92
11.32
12.03
13.08
14.39
15.83
17.28
18.66
19.91
20.94
21.73
22.27
22.58
22.71
22.67
22.41
21.87
21.06
20.04
19.01
18.11
17.44
16.94
16.47
15.92
15.25
14.52
13.83
13.24
12.68
12.04
11.15
9.95
8.47
6.89
5.43
4.25
3.40
2.78
2.20
1.46
0.49
-0.68
-1.91
-3.09
-4.17
-5.18
-6.16
-7.16
-8.18
-9.28
-10.53
-12.05
-13.86
-15.93
-18.07
-20.07
-21.83
-23.38
-24.94
-26.77
-29.10
-31.95
-35.20
-38.49
-41.34
-43.14
-43.35
-41.64
-37.99
-32.75
-26.49
-19.90
-13.56
-7.82
-2.84
1.35
4.77
7.45
9.47
10.93
12.00
12.88
13.70
14.52
15.31
16.00
16.59
17.09
17.61
18.22
18.94
19.74
20.50
21.15
21.63
21.91
21.94
21.67
21.06
20.13
19.01
17.88
16.94
16.28
15.86
15.52
15.08
14.43
13.59
12.68
11.83
11.13
10.60
10.15
9.72
9.25
8.74
8.20
7.64
7.04
6.32
5.38
4.21
2.87
1.45
0.07
-1.17
-2.27
-3.27
-4.24
-5.26
-6.43
-7.81
-9.46
-11.36
-13.43
-15.51
-17.48
-19.26
-20.92
-22.64
-24.61
-26.98
-29.77
-32.83
-35.88
-38.47
-40.06
-40.14
-38.37
-34.73
-29.59
-23.59
-17.47
-11.82
-6.92
-2.78
0.70
3.61
5.98
7.79
9.05
9.90
10.54
11.19
12.02
13.12
14.51
16.13
17.87
19.56
21.00
22.03
22.59
22.73
22.61
22.36
21.99
21.45
20.63
19.53
18.22
16.91
15.76
14.82
14.01
13.21
12.31
11.31
10.28
9.34
8.55
7.90
7.30
6.67
5.92
5.03
4.00
2.84
1.58
0.28
-1.00
-2.23
-3.39
-4.53
-5.73
-7.07
-8.60
-10.34
-12.23
-14.21
-16.18
-18.09
-19.92
-21.71
-23.52
-25.47
-27.70
-30.32
-33.35
-36.69
-39.97
-42.63
-44.00
-43.52
-40.88
-36.22
-30.10
-23.27
-16.48
-10.28
-4.94
-0.48
3.18
6.14
8.48
10.31
11.74
12.93
14.04
15.20
16.43
17.72
19.00
20.22
21.33
22.31
23.14
23.78
24.19
24.36
24.27
23.89
23.26
22.41
21.45
20.51
19.69
19.04
18.49
17.92
17.18
16.21
15.10
14.01
13.14
12.54
12.16
11.80
11.26
10.43
9.33
8.10
6.87
5.78
4.83
3.96
3.04
1.98
0.76
-0.58
-1.98
-3.45
-5.02
-6.82
-8.90
-11.30
-13.92
-16.59
-19.15
-21.48
-23.56
-25.48
-27.39
-29.48
-31.97
-35.01
-38.63
-42.58
-46.35
-49.21
-50.39
-49.32
-45.84
-40.30
-33.42
-26.13
-19.22
-13.18
-8.11
-3.82
-0.04
3.43
6.59
9.36
11.66
13.51
15.07
16.53
18.08
19.78
21.58
23.28
24.74
25.84
26.61
27.21
27.85
28.63
29.48
30.17
30.37
29.86
28.59
26.78
24.71
22.70
20.90
19.33
17.96
16.77
15.79
15.12
14.76
14.63
14.56
14.37
13.97
13.36
12.62
11.85
11.06
10.22
9.26
8.16
6.94
5.64
4.30
2.84
1.14
-0.95
-3.54
-6.59
-9.93
-13.32
-16.52
-19.38
-21.93
-24.31
-26.76
-29.48
-32.58
-36.01
-39.55
-42.86
-45.50
-46.97
-46.83
-44.80
-40.86
-35.31
-28.70
-21.69
-14.88
-8.65
-3.19
1.47
5.27
8.15
10.07
11.07
11.41
11.48
11.69
12.32
13.47
15.05
16.86
18.74
20.55
22.21
23.65
24.76
25.45
25.69
25.48
24.89
23.99
22.88
21.64
20.36
19.11
17.96
16.97
16.16
15.55
15.08
14.65
14.14
13.42
12.42
11.17
9.80
8.46
7.25
6.15
5.02
3.72
2.16
0.34
-1.61
-3.52
-5.29
-6.92
-8.56
-10.39
-12.56
-15.09
-17.82
-20.54
-23.00
-25.14
-27.02
-28.86
-30.92
-33.34
-36.20
-39.42
-42.84
-46.15
-48.88
-50.49
-50.34
-48.01
-43.39
-36.87
-29.19
-21.27
-13.87
-7.43
-1.98
2.67
6.76
10.38
13.50
16.00
17.82
19.07
19.99
20.88
21.96
23.27
24.72
26.12
27.34
28.35
29.18
29.91
30.52
30.90
30.86
30.29
29.22
27.82
26.37
25.08
24.04
23.16
22.30
21.32
20.22
19.08
18.03
17.18
16.53
16.02
15.55
15.01
14.35
13.56
12.68
11.77
10.91
10.13
9.42
8.69
7.84
6.76
5.39
3.75
1.95
0.11
-1.66
-3.28
-4.77
-6.17
-7.59
-9.13
-10.92
-12.99
-15.32
-17.82
-20.41
-22.95
-25.40
-27.77
-30.19
-32.83
-35.91
-39.52
-43.55
-47.51
-50.67
-52.15
-51.28
-47.78
-41.99
-34.67
-26.78
-19.14
-12.23
-6.19
-0.92
3.72
7.81
11.32
14.19
16.44
18.13
19.45
20.60
21.74
22.96
24.27
25.61
26.89
28.00
28.89
29.56
30.04
30.33
30.39
30.13
29.44
28.28
26.73
25.01
23.34
21.91
20.76
19.83
18.97
18.10
17.18
16.24
15.32
14.45
13.60
12.74
11.83
10.88
9.91
8.97
8.05
7.13
6.16
5.09
3.94
2.73
1.55
0.43
-0.62
-1.68
-2.88
-4.31
-6.01
-7.95
-10.03
-12.18
-14.37
-16.56
-18.78
-21.02
-23.27
-25.57
-27.98
-30.60
-33.51
-36.69
-39.92
-42.76
-44.61
-44.88
-43.17
-39.42
-33.93
-27.25
-20.10
-13.07
-6.59
-0.85
4.12
8.32
11.75
14.35
16.04
16.87
16.98
16.71
16.44
16.56
17.23
18.44
19.95
21.46
22.76
23.79
24.59
25.26
25.78
26.01
25.78
25.01
23.75
22.23
20.78
19.60
18.78
18.20
17.62
16.83
15.72
14.32
12.75
11.19
9.81
8.70
7.90
7.34
6.87
6.31
5.55
4.57
3.46
2.37
1.41
0.56
-0.35
-1.50
-2.98
-4.72
-6.52
-8.16
-9.56
-10.82
-12.16
-13.86
-15.99
-18.52
-21.21
-23.79
-26.04
-27.90
-29.48
-30.99
-32.71
-34.87
-37.55
-40.64
-43.82
-46.58
-48.36
-48.62
-46.99
-43.40
-38.08
-31.50
-24.30
-17.07
-10.29
-4.28
0.90
5.24
8.83
11.77
14.14
16.01
17.48
18.62
19.57
20.43
21.35
22.39
23.56
24.77
25.89
26.78
27.41
27.78
27.98
28.05
27.95
27.60
26.91
25.88
24.63
23.34
22.15
21.12
20.22
19.41
18.67
18.01
17.46
16.98
16.45
15.73
14.74
13.52
12.17
10.82
9.53
8.28
7.00
5.67
4.35
3.15
2.16
1.35
0.59
-0.33
-1.55
-3.05
-4.72
-6.33
-7.71
-8.81
-9.68
-10.52
-11.52
-12.84
-14.53
-16.57
-18.84
-21.18
-23.46
-25.59
-27.60
-29.61
-31.81
-34.36
-37.32
-40.57
-43.78
-46.43
-47.97
-47.87
-45.82
-41.76
-35.98
-29.01
-21.56
-14.30
-7.78
-2.26
2.23
5.84
8.75
11.11
12.99
14.43
15.50
16.38
17.28
18.34
19.61
20.96
22.18
23.12
23.73
24.09
24.34
24.61
24.86
24.94
24.69
24.03
23.02
21.84
20.71
19.80
19.10
18.50
17.86
17.07
16.10
15.00
13.86
12.79
11.85
11.05
10.37
9.73
9.05
8.28
7.46
6.66
5.97
5.42
4.94
4.41
3.70
2.74
1.55
0.24
-1.06
-2.25
-3.32
-4.32
-5.41
-6.71
-8.35
-10.34
-12.59
-14.90
-17.11
-19.08
-20.77
-22.29
-23.74
-25.31
-27.12
-29.25
-31.66
-34.22
-36.61
-38.38
-38.97
-37.91
-34.95
-30.17
-24.05
-17.32
-10.75
-5.00
-0.35
3.16
5.73
7.61
8.96
9.90
10.50
10.88
11.24
11.77
12.61
13.75
15.10
16.45
17.64
18.55
19.21
19.67
19.97
20.12
20.06
19.69
18.96
17.90
16.67
15.45
14.38
13.50
12.80
12.21
11.66
11.10
10.48
9.74
8.84
7.78
6.65
5.60
4.76
4.20
3.90
3.77
3.68
3.52
3.21
2.68
1.89
0.81
-0.52
-2.03
-3.61
-5.13
-6.55
-7.88
-9.19
-10.60
-12.25
-14.19
-16.44
-18.86
-21.29
-23.55
-25.54
-27.33
-29.06
-30.97
-33.23
-35.92
-38.97
-42.09
-44.82
-46.57
-46.72
-44.84
-40.85
-35.03
-28.04
-20.68
-13.69
-7.56
-2.47
1.64
4.98
7.74
10.04
11.97
13.58
14.96
16.17
17.32
18.46
19.57
20.62
21.56
22.40
23.18
23.95
24.67
25.29
25.65
25.65
25.23
24.37
23.15
21.70
20.20
18.80
17.67
16.86
16.31
15.90
15.44
14.80
13.95
12.97
11.98
11.12
10.45
9.99
9.67
9.40
9.09
8.66
8.02
7.14
6.01
4.72
3.37
2.13
1.09
0.29
-0.38
-1.08
-1.99
-3.18
-4.61
-6.17
-7.75
-9.25
-10.70
-12.16
-13.66
-15.23
-16.80
-18.32
-19.78
-21.20
-22.65
-24.20
-25.93
-27.91
-30.26
-33.03
-36.21
-39.56
-42.66
-44.91
-45.70
-44.59
-41.42
-36.43
-30.13
-23.19
-16.31
-10.02
-4.68
-0.37
3.03
5.77
8.11
10.22
12.20
14.01
15.59
16.86
17.83
18.54
19.10
19.61
20.17
20.82
21.55
22.28
22.95
23.48
23.83
23.97
23.86
23.45
22.69
21.62
20.39
19.20
18.23
17.54
17.06
16.64
16.10
15.34
14.38
13.29
12.19
11.16
10.25
9.46
8.75
8.10
7.44
6.74
5.97
5.14
4.29
3.42
2.56
1.68
0.78
-0.19
-1.27
-2.51
-3.91
-5.45
-7.01
-8.48
-9.82
-11.08
-12.42
-14.00
-15.87
-17.93
-19.95
-21.73
-23.22
-24.60
-26.20
-28.31
-31.06
-34.28
-37.54
-40.24
-41.80
-41.78
-39.97
-36.42
-31.43
-25.47
-19.07
-12.81
-7.09
-2.22
1.66
4.58
6.68
8.12
9.13
9.89
10.55
11.24
12.03
12.96
14.03
15.18
16.34
17.43
18.42
19.29
20.08
20.79
21.34
21.62
21.53
21.01
20.15
19.16
18.25
17.58
17.17
16.91
16.66
16.30
15.77
15.08
14.24
13.31
12.32
11.30
10.30
9.28
8.22
7.07
5.82
4.55
3.37
2.36
1.52
0.72
-0.21
-1.43
-2.96
-4.68
-6.37
-7.82
-8.91
-9.68
-10.26
-10.90
-11.78
-13.01
-14.61
-16.45
-18.38
-20.25
-22.06
-23.88
-25.88
-28.26
-31.14
-34.47
-38.02
-41.37
-43.92
-45.08
-44.36
-41.58
-36.87
-30.72
-23.83
-16.94
-10.65
-5.29
-0.93
2.55
5.38
7.74
9.79
11.61
13.26
14.77
16.20
17.53
18.72
19.68
20.37
20.83
21.16
21.51
22.02
22.69
23.42
24.04
24.36
24.27
23.76
22.93
21.95
21.00
20.20
19.63
19.24
18.93
18.54
17.95
17.12
16.12
15.01
13.92
12.86
11.81
10.74
9.66
8.64
7.79
7.16
6.76
6.50
6.25
5.91
5.42
4.78
3.97
2.97
1.74
0.30
-1.29
-2.91
-4.45
-5.85
-7.13
-8.40
-9.74
-11.18
-12.72
-14.31
-15.94
-17.60
-19.30
-21.10
-22.98
-24.93
-26.94
-29.06
-31.38
-34.03
-37.04
-40.17
-42.95
-44.72
-44.82
-42.85
-38.79
-33.07
-26.40
-19.59
-13.25
-7.72
-3.03
0.92
4.29
7.17
9.59
11.55
13.10
14.30
15.26
16.08
16.86
17.64
18.47
19.38
20.37
21.41
22.44
23.38
24.18
24.75
25.03
24.92
24.39
23.46
22.23
20.90
19.66
18.66
17.93
17.37
16.87
16.33
15.71
15.03
14.32
13.60
12.85
12.05
11.17
10.22
9.22
8.20
7.18
6.15
5.09
3.98
2.82
1.64
0.47
-0.68
-1.82
-3.01
-4.32
-5.78
-7.43
-9.23
-11.15
-13.13
-15.13
-17.08
-18.94
-20.68
-22.31
-23.91
-25.62
-27.62
-30.03
-32.85
-35.85
-38.64
-40.66
-41.33
-40.20
-37.15
-32.40
-26.46
-20.04
-13.76
-8.05
-3.08
1.19
4.85
7.96
10.48
12.33
13.50
14.12
14.42
14.72
15.24
16.06
17.13
18.28
19.39
20.37
21.22
21.97
22.64
23.17
23.48
23.49
23.11
22.36
21.32
20.10
18.89
17.85
17.11
16.67
16.40
16.09
15.54
14.66
13.49
12.19
10.92
9.79
8.81
7.94
7.09
6.21
5.31
4.39
3.45
2.45
1.31
-0.02
-1.51
-3.06
-4.55
-5.84
-6.93
-7.90
-8.92
-10.19
-11.82
-13.78
-15.93
-18.06
-19.99
-21.67
-23.22
-24.83
-26.74
-29.13
-32.06
-35.46
-39.11
-42.65
-45.57
-47.32
-47.36
-45.39
-41.44
-35.90
-29.44
-22.81
-16.60
-11.09
-6.31
-2.10
1.70
5.13
8.15
10.66
12.62
14.12
15.32
16.43
17.56
18.78
20.05
21.29
22.43
23.40
24.17
24.73
25.11
25.31
25.30
25.06
24.57
23.87
23.06
22.28
21.63
21.11
20.61
19.93
18.95
17.68
16.28
14.98
14.04
13.55
13.46
13.56
13.59
13.31
12.56
11.34
9.80
8.19
6.77
5.66
4.87
4.23
3.49
2.50
1.20
-0.31
-1.90
-3.47
-4.95
-6.40
-7.88
-9.50
-11.31
-13.34
-15.59
-18.00
-20.46
-22.81
-24.96
-26.91
-28.83
-30.99
-33.59
-36.68
-40.02
-43.09
-45.18
-45.67
-44.19
-40.74
-35.65
-29.48
-22.87
-16.34
-10.29
-4.94
-0.40
3.29
6.15
8.26
9.74
10.77
11.56
12.34
13.31
14.59
16.14
17.84
19.46
20.86
21.94
22.80
23.55
24.26
24.91
25.37
25.48
25.17
24.47
23.49
22.44
21.42
20.47
19.54
18.54
17.43
16.24
15.04
13.91
12.88
11.96
11.06
10.17
9.26
8.35
7.42
6.44
5.30
3.99
2.50
0.95
-0.52
-1.82
-2.92
-3.88
-4.79
-5.74
-6.83
-8.17
-9.85
-11.91
-14.29
-16.82
-19.25
-21.41
-23.28
-25.03
-26.97
-29.41
-32.54
-36.31
-40.38
-44.18
-46.97
-48.00
-46.76
-43.12
-37.43
-30.42
-22.97
-15.89
-9.66
-4.41
0.00
3.81
7.19
10.16
12.66
14.63
16.08
17.18
18.15
19.18
20.40
21.77
23.17
24.43
25.44
26.16
26.63
26.90
27.02
26.96
26.66
26.05
25.10
23.90
22.60
21.37
20.37
19.62
19.08
18.58
17.99
17.22
16.31
15.38
14.59
14.06
13.76
13.54
13.19
12.56
11.60
10.40
9.15
8.02
7.09
6.29
5.48
4.50
3.25
1.73
0.02
-1.74
-3.41
-4.95
-6.33
-7.61
-8.89
-10.26
-11.83
-13.61
-15.60
-17.71
-19.83
-21.91
-23.92
-25.98
-28.26
-30.96
-34.19
-37.93
-41.89
-45.55
-48.24
-49.27
-48.17
-44.75
-39.28
-32.35
-24.78
-17.35
-10.60
-4.82
-0.02
3.95
7.24
9.95
12.16
13.93
15.39
16.71
18.03
19.43
20.85
22.16
23.20
23.90
24.33
24.64
24.96
25.36
25.76
25.99
25.89
25.38
24.48
23.30
21.98
20.65
19.43
18.40
17.56
16.90
16.32
15.67
14.85
13.84
12.70
11.56
10.54
9.68
8.93
8.16
7.29
6.28
5.20
4.16
3.21
2.37
1.57
0.71
-0.27
-1.40
-2.65
-3.97
-5.29
-6.57
-7.79
-8.95
-10.12
-11.40
-12.84
-14.42
-16.05
-17.62
-19.07
-20.47
-21.95
-23.65
-25.67
-28.01
-30.56
-33.21
-35.78
-37.97
-39.38
-39.51
-37.94
-34.50
-29.36
-23.08
-16.33
-9.78
-3.82
1.35
5.70
9.24
11.95
13.86
15.02
15.60
15.85
16.03
16.34
16.90
17.70
18.68
19.75
20.79
21.71
22.43
22.90
23.11
23.10
22.91
22.55
21.98
21.14
20.02
18.72
17.38
16.19
15.23
14.44
13.70
12.85
11.88
10.89
10.10
9.64
9.57
9.74
9.93
9.91
9.56
8.85
7.85
6.71
5.57
4.55
3.61
2.63
1.43
-0.13
-2.02
-4.06
-5.93
-7.40
-8.42
-9.18
-10.02
-11.25
-13.00
-15.20
-17.60
-19.92
-22.02
-23.90
-25.70
-27.57
-29.65
-31.99
-34.59
-37.36
-40.13
-42.58
-44.24
-44.55
-43.08
-39.65
-34.48
-28.13
-21.34
-14.83
-9.06
-4.19
-0.17
3.22
6.22
8.96
11.50
13.75
15.62
17.04
18.04
18.76
19.42
20.20
21.19
22.33
23.44
24.35
24.91
25.10
24.95
24.57
24.02
23.35
22.62
21.87
21.15
20.48
19.84
19.20
18.50
17.74
16.93
16.11
15.30
14.53
13.78
13.02
12.22
11.34
10.40
9.41
8.41
7.41
6.44
5.46
4.47
3.50
2.57
1.75
1.02
0.35
-0.37
-1.23
-2.24
-3.34
-4.43
-5.44
-6.34
-7.22
-8.17
-9.24
-10.46
-11.77
-13.12
-14.49
-15.85
-17.22
-18.59
-20.01
-21.51
-23.15
-25.04
-27.25
-29.82
-32.74
-35.80
-38.61
-40.62
-41.24
-40.00
-36.77
-31.82
-25.76
-19.37
-13.31
-8.00
-3.56
0.13
3.19
5.75
7.86
9.55
10.84
11.83
12.62
13.31
13.99
14.73
15.58
16.55
17.66
18.83
19.97
20.92
21.53
21.67
21.33
20.59
19.61
18.57
17.62
16.79
16.05
15.30
14.47
13.55
12.64
11.81
11.14
10.62
10.19
9.77
9.29
8.71
8.03
7.25
6.38
5.42
4.40
3.37
2.38
1.47
0.61
-0.24
-1.16
-2.18
-3.31
-4.50
-5.68
-6.84
-7.98
-9.14
-10.38
-11.77
-13.29
-14.92
-16.55
-18.08
-19.46
-20.67
-21.80
-23.00
-24.42
-26.19
-28.40
-31.06
-34.01
-36.96
-39.35
-40.57
-40.08
-37.65
-33.41
-27.89
-21.80
-15.80
-10.30
-5.45
-1.23
2.43
5.55
8.11
10.10
11.58
12.69
13.59
14.48
15.46
16.55
17.72
18.84
19.80
20.56
21.13
21.59
22.01
22.40
22.67
22.69
22.34
21.59
20.53
19.35
18.22
17.28
16.61
16.18
15.92
15.68
15.30
14.68
13.81
12.75
11.62
10.54
9.55
8.67
7.83
7.00
6.14
5.23
4.26
3.20
2.02
0.73
-0.61
-1.86
-2.91
-3.71
-4.31
-4.84
-5.46
-6.30
-7.42
-8.78
-10.33
-11.94
-13.55
-15.11
-16.59
-18.00
-19.32
-20.57
-21.80
-23.13
-24.74
-26.83
-29.50
-32.66
-35.96
-38.80
-40.44
-40.23
-37.84
-33.40
-27.50
-20.96
-14.61
-9.00
-4.35
-0.53
2.66
5.41
7.75
9.66
11.14
12.29
13.31
14.38
15.57
16.81
17.92
18.79
19.40
19.85
20.30
20.82
21.39
21.90
22.20
22.14
21.69
20.89
19.85
18.71
17.59
16.63
15.87
15.28
14.77
14.21
13.45
12.44
11.22
9.92
8.72
7.75
7.04
6.56
6.18
5.81
5.37
4.81
4.11
3.23
2.16
0.90
-0.48
-1.86
-3.16
-4.28
-5.24
-6.09
-6.92
-7.85
-8.98
-10.41
-12.19
-14.23
-16.36
-18.35
-20.03
-21.36
-22.52
-23.84
-25.62
-28.03
-30.98
-34.05
-36.67
-38.21
-38.22
-36.51
-33.16
-28.50
-23.01
-17.19
-11.55
-6.44
-2.08
1.46
4.22
6.33
7.90
9.04
9.84
10.42
10.92
11.49
12.22
13.19
14.36
15.64
16.93
18.14
19.17
19.97
20.48
20.71
20.68
20.44
20.04
19.54
18.97
18.36
17.77
17.22
16.73
16.26
15.77
15.18
14.48
13.68
12.83
11.99
11.20
10.49
9.84
9.22
8.58
7.86
7.00
5.97
4.84
3.74
2.80
2.10
1.56
0.98
0.17
-0.96
-2.30
-3.65
-4.76
-5.57
-6.21
-6.90
-7.88
-9.22
-10.89
-12.76
-14.71
-16.66
-18.54
-20.32
-21.95
-23.49
-25.08
-26.92
-29.16
-31.84
-34.79
-37.60
-39.82
-40.94
-40.54
-38.38
-34.45
-29.09
-22.83
-16.42
-10.52
-5.54
-1.62
1.42
3.83
5.85
7.58
9.03
10.22
11.24
12.22
13.31
14.57
15.96
17.39
18.74
19.96
21.00
21.87
22.51
22.85
22.82
22.43
21.75
20.96
20.20
19.55
18.99
18.44
17.84
17.15
16.40
15.63
14.90
14.24
13.67
13.25
12.98
12.79
12.57
12.18
11.51
10.56
9.44
8.27
7.15
6.10
5.06
3.96
2.78
1.56
0.37
-0.73
-1.74
-2.70
-3.67
-4.65
-5.61
-6.50
-7.27
-7.98
-8.74
-9.71
-11.02
-12.70
-14.63
-16.60
-18.42
-20.01
-21.44
-22.94
-24.72
-26.96
-29.61
-32.40
-34.86
-36.42
-36.57
-35.02
-31.73
-26.98
-21.28
-15.23
-9.41
-4.22
0.11
3.55
6.14
7.99
9.23
10.00
10.51
10.93
11.44
12.11
12.91
13.75
14.49
15.07
15.52
15.93
16.39
16.93
17.47
17.88
18.02
17.80
17.27
16.51
15.66
14.83
14.08
13.42
12.84
12.31
11.77
11.19
10.55
9.89
9.30
8.86
8.60
8.44
8.20
7.75
7.05
6.20
5.35
4.68
4.17
3.70
3.07
2.12
0.81
-0.75
-2.40
-4.00
-5.49
-6.84
-8.08
-9.27
-10.45
-11.67
-12.97
-14.37
-15.86
-17.42
-19.04
-20.73
-22.51
-24.43
-26.54
-28.89
-31.47
-34.15
-36.69
-38.66
-39.62
-39.12
-36.95
-33.18
-28.13
-22.31
-16.27
-10.44
-5.15
-0.54
3.31
6.41
8.77
10.48
11.69
12.59
13.38
14.24
15.23
16.36
17.52
18.60
19.51
20.21
20.67
20.93
20.99
20.89
20.64
20.30
19.87
19.39
18.85
18.25
17.62
16.97
16.33
15.73
15.11
14.46
13.75
13.01
12.34
11.83
11.50
11.30
11.12
10.86
10.49
10.05
9.59
9.12
8.54
7.75
6.70
5.46
4.19
3.06
2.13
1.37
0.66
-0.10
-0.94
-1.87
-2.87
-4.00
-5.30
-6.78
-8.37
-9.95
-11.42
-12.74
-14.03
-15.42
-17.01
-18.78
-20.62
-22.36
-23.92
-25.36
-26.87
-28.67
-30.87
-33.35
-35.78
-37.65
-38.41
-37.63
-35.12
-30.99
-25.64
-19.67
-13.72
-8.31
-3.77
-0.18
2.55
4.61
6.24
7.60
8.82
9.97
11.04
12.04
12.95
13.77
14.54
15.28
16.02
16.74
17.42
18.07
18.64
19.16
19.55
19.73
19.59
19.05
18.11
16.87
15.55
14.36
13.50
13.07
13.02
13.22
13.46
13.50
13.20
12.55
11.66
10.74
10.00
9.51
9.24
9.02
8.69
8.17
7.51
6.82
6.19
5.61
5.00
4.18
3.08
1.74
0.27
-1.13
-2.35
-3.33
-4.13
-4.85
-5.62
-6.55
-7.68
-9.03
-10.57
-12.19
-13.81
-15.33
-16.72
-18.04
-19.41
-20.97
-22.82
-25.02
-27.56
-30.31
-33.02
-35.30
-36.64
-36.56
-34.77
-31.24
-26.35
-20.71
-15.01
-9.83
-5.45
-1.92
0.92
3.23
5.14
6.68
7.85
8.69
9.32
9.91
10.63
11.56
12.69
13.90
15.08
16.13
17.04
17.85
18.59
19.24
19.68
19.78
19.43
18.71
17.74
16.77
15.96
15.37
14.96
14.63
14.30
13.94
13.62
13.39
13.22
13.03
12.71
12.16
11.37
10.43
9.46
8.62
7.95
7.44
7.01
6.59
6.14
5.63
5.06
4.38
3.60
2.73
1.83
0.97
0.18
-0.64
-1.60
-2.83
-4.31
-5.89
-7.38
-8.62
-9.60
-10.47
-11.48
-12.81
-14.51
-16.43
-18.34
-19.99
-21.31
-22.39
-23.48
-24.86
-26.76
-29.19
-31.99
-34.80
-37.16
-38.60
-38.74
-37.36
-34.46
-30.23
-25.07
-19.46
-13.90
-8.77
-4.33
-0.66
2.24
4.47
6.14
7.39
8.38
9.30
10.30
11.44
12.68
13.92
15.05
16.03
16.93
17.86
18.88
19.96
20.95
21.67
22.00
21.92
21.54
21.01
20.44
19.86
19.24
18.49
17.57
16.52
15.42
14.41
13.61
13.06
12.72
12.49
12.26
11.96
11.53
10.97
10.24
9.38
8.40
7.38
6.42
5.59
4.95
4.46
4.07
3.69
3.28
2.85
2.37
1.82
1.15
0.33
-0.65
-1.73
-2.82
-3.85
-4.76
-5.55
-6.30
-7.08
-8.02
-9.14
-10.43
-11.79
-13.14
-14.43
-15.72
-17.06
-18.59
-20.35
-22.35
-24.54
-26.85
-29.21
-31.51
-33.56
-35.05
-35.59
-34.82
-32.51
-28.71
-23.69
-17.95
-12.01
-6.42
-1.52
2.42
5.37
7.37
8.61
9.30
9.73
10.14
10.74
11.68
13.01
14.67
16.53
18.42
20.17
21.62
22.71
23.46
23.95
24.28
24.47
24.48
24.20
23.49
22.26
20.54
18.48
16.27
14.15
12.23
10.59
9.17
7.92
6.77
5.68
4.64
3.72
2.94
2.36
1.96
1.71
1.51
1.30
0.99
0.49
-0.25
-1.28
-2.57
-4.02
-5.47
-6.75
-7.81
-8.71
-9.60
-10.59
-11.71
-12.88
-13.97
-14.91
-15.73
-16.57
-17.57
-18.79
-20.23
-21.77
-23.29
-24.68
-25.90
-26.94
-27.90
-28.98
-30.38
-32.32
-34.89
-37.94
-41.04
-43.58
-44.90
-44.46
-42.01
-37.70
-31.96
-25.43
-18.75
-12.47
-6.92
-2.23
1.58
4.60
6.92
8.68
10.02
11.08
11.97
12.80
13.66
14.59
15.63
16.76
17.96
19.16
20.30
21.32
22.13
22.67
22.94
22.93
22.70
22.33
21.89
21.43
20.94
20.37
19.75
19.14
18.62
18.29
18.16
18.15
18.18
18.18
18.16
18.16
18.21
18.23
18.11
17.73
17.02
16.01
14.79
13.47
12.16
10.94
9.90
9.09
8.51
8.07
7.63
7.01
6.07
4.80
3.28
1.70
0.24
-0.98
-1.97
-2.88
-3.95
-5.42
-7.39
-9.82
-12.50
-15.16
-17.58
-19.67
-21.48
-23.17
-24.92
-26.92
-29.31
-32.16
-35.38
-38.72
-41.69
-43.66
-44.02
-42.38
-38.71
-33.33
-26.86
-20.00
-13.38
-7.43
-2.39
1.65
4.75
7.00
8.53
9.51
10.13
10.58
11.04
11.67
12.56
13.71
15.07
16.50
17.86
19.07
20.04
20.80
21.39
21.85
22.20
22.45
22.56
22.50
22.26
21.85
21.32
20.74
20.11
19.42
18.63
17.73
16.72
15.73
14.82
14.07
13.49
13.01
12.53
12.00
11.32
10.44
9.32
7.99
6.47
4.86
3.23
1.65
0.12
-1.41
-3.02
-4.77
-6.74
-8.91
-11.24
-13.64
-15.98
-18.15
-20.08
-21.79
-23.39
-25.00
-26.74
-28.75
-31.07
-33.72
-36.60
-39.46
-41.86
-43.22
-42.99
-40.81
-36.69
-31.03
-24.49
-17.78
-11.44
-5.77
-0.86
3.29
6.65
9.15
10.72
11.37
11.31
10.86
10.38
10.20
10.51
11.34
12.58
14.04
15.53
16.90
18.10
19.13
20.01
20.70
21.11
21.11
20.58
19.54
18.09
16.42
14.72
13.14
11.74
10.48
9.28
8.04
6.69
5.24
3.74
2.31
1.01
-0.19
-1.39
-2.76
-4.39
-6.34
-8.52
-10.83
-13.18
-15.57
-18.02
-20.60
-23.36
-26.34
-29.57
-33.11
-36.87
-40.62
-43.88
-46.08
-46.65
-45.24
-41.79
-36.58
-30.08
-22.87
-15.52
-8.51
-2.21
3.12
7.36
10.53
12.72
14.13
14.97
15.50
15.96
16.60
17.59
19.00
20.70
22.48
24.06
25.23
25.95
26.34
26.58
26.82
27.07
27.17
26.95
26.31
25.28
24.05
22.78
21.57
20.42
19.25
18.02
16.80
15.70
14.76
13.90
12.94
11.67
10.01
8.07
6.06
4.14
2.35
0.54
-1.50
-3.93
-6.74
-9.77
-12.81
-15.66
-18.27
-20.71
-23.13
-25.73
-28.67
-32.12
-36.11
-40.50
-44.94
-48.84
-51.48
-52.21
-50.60
-46.62
-40.65
-33.34
-25.44
-17.63
-10.38
-3.91
1.73
6.61
10.80
14.38
17.40
19.96
22.14
24.09
25.92
27.71
29.47
31.19
32.77
34.14
35.22
35.98
36.44
36.62
36.52
36.16
35.47
34.44
33.09
31.53
29.95
28.51
27.32
26.32
25.35
24.21
22.79
21.10
19.24
17.45
15.87
14.56
13.42
12.25
10.81
8.93
6.63
4.06
1.51
-0.71
-2.49
-3.89
-5.19
-6.69
-8.60
-10.92
-13.44
-15.91
-18.17
-20.19
-22.16
-24.30
-26.85
-29.92
-33.51
-37.48
-41.54
-45.24
-47.96
-49.04
-47.91
-44.30
-38.37
-30.73
-22.23
-13.76
-6.01
0.65
6.09
10.31
13.38
15.37
16.46
16.89
17.04
17.24
17.77
18.71
20.02
21.57
23.23
24.87
26.36
27.59
28.45
28.86
28.85
28.51
27.96
27.31
26.58
25.73
24.71
23.49
22.12
20.75
19.51
18.51
17.74
17.07
16.37
15.53
14.52
13.41
12.31
11.29
10.33
9.34
8.19
6.78
5.09
3.18
1.14
-0.89
-2.87
-4.74
-6.56
-8.40
-10.36
-12.53
-14.93
-17.54
-20.26
-22.95
-25.53
-27.97
-30.31
-32.69
-35.31
-38.35
-41.98
-46.22
-50.88
-55.46
-59.13
-60.93
-60.02
-56.00
-49.14
-40.33
-30.75
-21.55
-13.44
-6.65
-0.99
3.86
8.12
11.83
14.92
17.33
19.14
20.54
21.81
23.16
24.68
26.36
28.12
29.86
31.48
32.91
34.08
34.91
35.32
35.28
34.83
34.07
33.09
32.00
30.85
29.66
28.47
27.31
26.21
25.17
24.19
23.24
22.32
21.47
20.71
20.04
19.38
18.63
17.72
16.66
15.54
14.49
13.58
12.83
12.17
11.49
10.75
9.92
8.99
7.99
6.94
5.86
4.79
3.76
2.81
1.94
1.09
0.14
-1.01
-2.45
-4.14
-5.95
-7.72
-9.31
-10.69
-11.97
-13.33
-14.96
-16.94
-19.25
-21.78
-24.34
-26.80
-29.05
-31.10
-33.05
-35.08
-37.43
-40.36
-43.93
-47.93
-51.82
-54.76
-55.83
-54.30
-49.94
-43.10
-34.62
-25.61
-17.07
-9.65
-3.59
1.20
4.99
7.99
10.37
12.19
13.55
14.62
15.59
16.69
18.04
19.65
21.40
23.14
24.75
26.19
27.49
28.70
29.82
30.74
31.27
31.23
30.49
29.09
27.24
25.21
23.28
21.67
20.46
19.62
19.04
18.55
17.98
17.19
16.10
14.74
13.24
11.78
10.56
9.62
8.87
8.12
7.19
5.96
4.45
2.77
1.03
-0.70
-2.41
-4.12
-5.85
-7.59
-9.36
-11.21
-13.24
-15.49
-17.94
-20.46
-22.86
-24.99
-26.86
-28.65
-30.67
-33.23
-36.51
-40.46
-44.75
-48.79
-51.84
-53.13
-52.05
-48.35
-42.20
-34.22
-25.32
-16.49
-8.52
-1.86
3.38
7.37
10.36
12.56
14.13
15.15
15.76
16.14
16.55
17.19
18.21
19.56
21.10
22.60
23.88
24.87
25.62
26.23
26.79
27.25
27.48
27.29
26.59
25.44
24.07
22.75
21.71
21.00
20.51
20.06
19.44
18.60
17.60
16.55
15.60
14.85
14.33
13.99
13.71
13.38
12.89
12.20
11.35
10.44
9.57
8.79
8.06
7.27
6.36
5.33
4.26
3.23
2.30
1.41
0.42
-0.81
-2.33
-4.07
-5.87
-7.59
-9.14
-10.53
-11.86
-13.28
-14.89
-16.79
-19.00
-21.46
-24.06
-26.64
-29.04
-31.15
-32.99
-34.67
-36.44
-38.57
-41.32
-44.78
-48.79
-52.90
-56.37
-58.30
-57.91
-54.73
-48.83
-40.78
-31.53
-22.15
-13.52
-6.17
-0.27
4.35
7.96
10.86
13.23
15.16
16.72
17.96
18.97
19.85
20.69
21.51
22.30
23.02
23.68
24.30
24.95
25.65
26.35
26.91
27.16
26.99
26.33
25.29
24.03
22.71
21.46
20.29
19.19
18.15
17.18
16.31
15.55
14.83
14.04
13.07
11.89
10.57
9.26
8.08
7.09
6.22
5.32
4.25
2.92
1.38
-0.25
-1.79
-3.11
-4.16
-5.02
-5.88
-6.97
-8.46
-10.38
-12.59
-14.89
-17.09
-19.14
-21.11
-23.17
-25.44
-27.97
-30.78
-33.89
-37.31
-40.94
-44.47
-47.28
-48.55
-47.51
-43.78
-37.54
-29.50
-20.70
-12.14
-4.56
1.71
6.61
10.25
12.79
14.37
15.20
15.52
15.65
15.89
16.46
17.41
18.64
19.95
21.15
22.12
22.86
23.45
24.00
24.55
25.01
25.25
25.12
24.57
23.63
22.46
21.19
19.93
18.71
17.45
16.14
14.76
13.37
12.07
10.95
10.03
9.31
8.73
8.22
7.70
7.07
6.21
5.10
3.73
2.18
0.50
-1.22
-2.95
-4.67
-6.32
-7.85
-9.20
-10.44
-11.72
-13.25
-15.20
-17.60
-20.31
-23.09
-25.73
-28.11
-30.29
-32.44
-34.82
-37.64
-41.01
-44.87
-48.88
-52.40
-54.61
-54.64
-51.95
-46.48
-38.78
-29.79
-20.61
-12.15
-4.92
0.95
5.59
9.26
12.16
14.38
16.01
17.15
17.96
18.68
19.55
20.74
22.26
23.97
25.61
26.96
27.92
28.55
28.99
29.35
29.60
29.60
29.14
28.13
26.68
25.03
23.47
22.17
21.15
20.31
19.51
18.68
17.84
17.07
16.44
15.96
15.60
15.25
14.80
14.14
13.21
12.04
10.74
9.44
8.28
7.24
6.22
5.05
3.58
1.81
-0.13
-2.04
-3.76
-5.24
-6.57
-7.92
-9.45
-11.27
-13.36
-15.64
-17.99
-20.29
-22.43
-24.37
-26.15
-27.94
-30.00
-32.58
-35.85
-39.75
-43.97
-47.94
-50.93
-52.19
-51.14
-47.55
-41.58
-33.84
-25.25
-16.77
-9.18
-2.89
2.09
5.96
8.97
11.30
12.99
14.06
14.63
14.94
15.31
16.02
17.19
18.76
20.53
22.24
23.71
24.81
25.49
25.75
25.62
25.17
24.50
23.71
22.86
21.93
20.91
19.74
18.51
17.32
16.37
15.76
15.46
15.34
15.15
14.74
14.03
13.09
12.07
11.08
10.17
9.27
8.29
7.12
5.74
4.17
2.50
0.81
-0.83
-2.40
-3.87
-5.28
-6.68
-8.15
-9.82
-11.78
-14.04
-16.51
-19.05
-21.47
-23.68
-25.70
-27.62
-29.63
-31.86
-34.43
-37.41
-40.78
-44.44
-48.12
-51.30
-53.28
-53.28
-50.73
-45.51
-38.09
-29.39
-20.49
-12.27
-5.18
0.78
5.86
10.25
14.01
17.03
19.19
20.54
21.33
21.92
22.66
23.73
25.13
26.68
28.15
29.31
30.03
30.29
30.21
29.94
29.65
29.39
29.13
28.74
28.09
27.15
25.98
24.70
23.47
22.37
21.46
20.69
20.03
19.39
18.70
17.95
17.16
16.35
15.56
14.80
14.01
13.14
12.18
11.19
10.24
9.41
8.69
8.04
7.39
6.72
6.01
5.29
4.55
3.76
2.91
2.03
1.16
0.38
-0.26
-0.77
-1.24
-1.77
-2.46
-3.38
-4.53
-5.90
-7.45
-9.10
-10.82
-12.58
-14.42
-16.42
-18.69
-21.22
-23.92
-26.60
-29.03
-31.11
-32.86
-34.52
-36.41
-38.86
-42.05
-45.91
-50.06
-53.85
-56.43
-57.00
-55.03
-50.37
-43.38
-34.82
-25.64
-16.76
-8.86
-2.27
2.96
6.97
9.98
12.19
13.82
15.07
16.18
17.33
18.59
19.99
21.39
22.70
23.84
24.80
25.67
26.51
27.32
28.06
28.65
28.97
28.96
28.56
27.75
26.59
25.23
23.89
22.75
21.90
21.28
20.70
19.99
19.08
18.02
16.97
16.09
15.41
14.81
14.14
13.27
12.21
11.07
10.01
9.13
8.40
7.72
6.96
6.06
5.03
3.94
2.90
1.95
1.07
0.21
-0.72
-1.76
-2.91
-4.18
-5.55
-7.05
-8.70
-10.53
-12.50
-14.57
-16.63
-18.58
-20.36
-21.98
-23.54
-25.16
-27.01
-29.22
-31.91
-35.14
-38.86
-42.89
-46.81
-50.00
-51.77
-51.50
-48.86
-43.92
-37.21
-29.49
-21.62
-14.27
-7.80
-2.30
2.35
6.25
9.45
11.91
13.62
14.65
15.22
15.66
16.28
17.32
18.79
20.60
22.54
24.40
26.03
27.32
28.21
28.66
28.60
28.02
26.96
25.52
23.95
22.45
21.20
20.22
19.42
18.66
17.86
17.06
16.36
15.84
15.48
15.19
14.81
14.31
13.71
13.13
12.65
12.26
11.88
11.39
10.73
9.95
9.09
8.20
7.28
6.26
5.10
3.82
2.52
1.33
0.36
-0.38
-1.00
-1.67
-2.55
-3.77
-5.32
-7.12
-9.04
-10.91
-12.60
-14.09
-15.47
-16.93
-18.67
-20.81
-23.33
-26.06
-28.73
-31.15
-33.26
-35.18
-37.14
-39.38
-42.05
-45.15
-48.52
-51.75
-54.27
-55.36
-54.38
-50.93
-45.11
-37.50
-28.99
-20.58
-13.02
-6.71
-1.66
2.31
5.49
8.06
10.18
11.94
13.41
14.72
15.97
17.25
18.58
19.91
21.16
22.26
23.16
23.88
24.49
25.03
25.52
25.88
26.00
25.76
25.09
24.05
22.79
21.52
20.44
19.67
19.20
18.91
18.62
18.19
17.52
16.63
15.63
14.66
13.81
13.14
12.59
12.09
11.52
10.86
10.12
9.40
8.74
8.16
7.55
6.83
5.97
5.02
4.10
3.30
2.59
1.85
0.89
-0.46
-2.17
-4.08
-5.94
-7.52
-8.76
-9.72
-10.57
-11.49
-12.62
-14.04
-15.73
-17.64
-19.63
-21.60
-23.49
-25.39
-27.47
-29.95
-32.96
-36.44
-40.08
-43.31
-45.48
-46.00
-44.51
-40.97
-35.65
-29.10
-21.96
-14.89
-8.43
-2.91
1.55
4.96
7.44
9.14
10.17
10.67
10.81
10.80
10.93
11.42
12.43
13.98
15.89
17.92
19.81
21.39
22.60
23.47
24.05
24.36
24.36
24.02
23.34
22.38
21.26
20.13
19.10
18.25
17.57
17.04
16.58
16.09
15.48
14.71
13.79
12.85
12.01
11.33
10.78
10.24
9.56
8.70
7.68
6.65
5.73
4.94
4.18
3.26
2.12
0.82
-0.47
-1.52
-2.27
-2.77
-3.23
-3.87
-4.82
-6.07
-7.47
-8.81
-9.94
-10.86
-11.69
-12.62
-13.79
-15.29
-17.06
-18.98
-20.91
-22.74
-24.46
-26.14
-27.89
-29.89
-32.31
-35.24
-38.69
-42.42
-46.01
-48.84
-50.25
-49.69
-46.90
-41.97
-35.40
-27.88
-20.20
-13.03
-6.80
-1.70
2.30
5.34
7.65
9.40
10.76
11.84
12.78
13.68
14.66
15.80
17.12
18.59
20.10
21.54
22.84
23.97
24.94
25.74
26.33
26.63
26.53
26.00
25.11
23.99
22.85
21.83
21.01
20.38
19.89
19.44
18.94
18.31
17.51
16.55
15.53
14.56
13.77
13.19
12.76
12.34
11.81
11.15
10.45
9.84
9.41
9.10
8.73
8.12
7.11
5.75
4.18
2.64
1.33
0.34
-0.33
-0.76
-1.08
-1.48
-2.07
-2.96
-4.12
-5.45
-6.81
-8.08
-9.28
-10.55
-12.08
-14.00
-16.32
-18.86
-21.36
-23.60
-25.48
-27.07
-28.63
-30.43
-32.69
-35.54
-38.91
-42.57
-46.11
-48.99
-50.56
-50.23
-47.59
-42.64
-35.82
-27.99
-20.15
-13.18
-7.56
-3.31
-0.09
2.52
4.83
6.89
8.64
10.01
11.07
12.08
13.33
15.00
17.06
19.28
21.35
23.04
24.26
25.05
25.54
25.84
25.97
25.88
25.49
24.78
23.78
22.60
21.38
20.24
19.27
18.48
17.85
17.35
16.93
16.56
16.22
15.83
15.32
14.58
13.55
12.28
10.87
9.50
8.27
7.21
6.23
5.22
4.11
2.87
1.61
0.37
-0.82
-2.04
-3.37
-4.82
-6.36
-7.90
-9.39
-10.88
-12.48
-14.27
-16.28
-18.36
-20.37
-22.19
-23.87
-25.62
-27.72
-30.39
-33.68
-37.43
-41.29
-44.72
-47.13
-47.93
-46.67
-43.22
-37.81
-31.04
-23.70
-16.52
-10.04
-4.47
0.19
4.03
7.09
9.40
10.99
11.99
12.67
13.31
14.13
15.17
16.38
17.66
18.93
20.22
21.57
22.99
24.39
25.58
26.35
26.53
26.08
25.05
23.62
22.05
20.61
19.49
18.76
18.32
17.99
17.60
17.06
16.42
15.81
15.35
15.04
14.79
14.43
13.84
13.03
12.10
11.18
10.42
9.84
9.44
9.13
8.84
8.48
7.99
7.35
6.59
5.78
4.96
4.13
3.25
2.25
1.07
-0.25
-1.65
-3.03
-4.33
-5.54
-6.73
-7.96
-9.30
-10.83
-12.56
-14.51
-16.63
-18.83
-20.99
-23.00
-24.84
-26.60
-28.46
-30.61
-33.22
-36.35
-39.87
-43.48
-46.72
-49.00
-49.71
-48.46
-45.10
-39.86
-33.30
-26.13
-19.01
-12.47
-6.75
-1.91
2.12
5.44
8.10
10.15
11.61
12.60
13.25
13.76
14.33
15.08
16.08
17.31
18.70
20.16
21.58
22.88
23.97
24.77
25.27
25.45
25.35
25.00
24.46
23.75
22.92
21.99
21.02
20.04
19.10
18.24
17.48
16.84
16.28
15.77
15.26
14.71
14.13
13.50
12.86
12.23
11.63
11.03
10.42
9.73
8.95
8.08
7.18
6.30
5.48
4.69
3.88
2.99
2.03
1.05
0.05
-0.98
-2.14
-3.56
-5.30
-7.33
-9.52
-11.69
-13.71
-15.53
-17.17
-18.70
-20.22
-21.81
-23.55
-25.53
-27.87
-30.64
-33.83
-37.25
-40.51
-43.05
-44.27
-43.66
-41.01
-36.47
-30.51
-23.80
-16.99
-10.61
-4.98
-0.26
3.51
6.38
8.38
9.63
10.27
10.51
10.62
10.83
11.37
12.30
13.61
15.17
16.81
18.35
19.70
20.84
21.75
22.48
22.98
23.21
23.14
22.75
22.06
21.10
19.96
18.72
17.48
16.32
15.31
14.47
13.80
13.25
12.76
12.28
11.78
11.21
10.52
9.66
8.59
7.33
5.95
4.57
3.28
2.14
1.12
0.14
-0.93
-2.14
-3.55
-5.14
-6.87
-8.69
-10.56
-12.46
-14.40
-16.38
-18.39
-20.43
-22.44
-24.42
-26.43
-28.65
-31.33
-34.72
-38.83
-43.34
-47.51
-50.39
-51.05
-48.97
-44.22
-37.44
-29.62
-21.77
-14.67
-8.69
-3.86
-0.02
3.03
5.45
7.34
8.82
10.00
11.04
12.08
13.26
14.60
16.12
17.78
19.50
21.20
22.82
24.31
25.64
26.79
27.72
28.29
28.38
27.88
26.81
25.38
23.87
22.54
21.51
20.68
19.90
19.02
18.00
16.92
15.91
15.04
14.31
13.67
13.09
12.58
12.14
11.72
11.24
10.57
9.62
8.38
6.98
5.59
4.39
3.46
2.75
2.11
1.34
0.26
-1.22
-3.02
-5.02
-7.03
-8.93
-10.70
-12.40
-14.18
-16.12
-18.23
-20.44
-22.64
-24.72
-26.69
-28.69
-30.99
-33.83
-37.33
-41.42
-45.70
-49.60
-52.43
-53.52
-52.43
-48.99
-43.42
-36.26
-28.28
-20.30
-13.02
-6.86
-1.94
1.86
4.80
7.14
9.05
10.62
11.94
13.08
14.15
15.30
16.60
18.09
19.67
21.24
22.64
23.82
24.76
25.47
25.99
26.32
26.41
26.20
25.64
24.76
23.66
22.55
21.59
20.89
20.45
20.15
19.87
19.49
18.96
18.30
17.55
16.74
15.91
15.07
14.19
13.19
12.00
10.57
8.97
7.41
6.10
5.17
4.58
4.11
3.47
2.49
1.18
-0.28
-1.67
-2.90
-4.05
-5.35
-7.01
-9.09
-11.48
-13.94
-16.25
-18.31
-20.20
-22.11
-24.24
-26.77
-29.77
-33.22
-36.98
-40.75
-44.10
-46.46
-47.24
-45.98
-42.54
-37.12
-30.26
-22.65
-15.03
-7.99
-1.90
3.04
6.80
9.47
11.19
12.17
12.66
12.92
13.24
13.84
14.92
16.50
18.47
20.61
22.65
24.39
25.72
26.66
27.32
27.76
28.00
27.98
27.59
26.75
25.47
23.84
22.08
20.46
19.20
18.42
18.05
17.87
17.61
17.08
16.28
15.37
14.58
14.08
13.84
13.68
13.40
12.86
12.09
11.19
10.27
9.37
8.43
7.37
6.17
4.85
3.52
2.23
1.03
-0.10
-1.20
-2.32
-3.50
-4.75
-6.07
-7.44
-8.85
-10.39
-12.12
-14.15
-16.53
-19.19
-21.95
-24.58
-26.91
-28.90
-30.70
-32.59
-34.90
-37.88
-41.62
-45.96
-50.47
-54.48
-57.19
-57.86
-56.00
-51.54
-44.83
-36.61
-27.75
-19.12
-11.36
-4.82
0.46
4.63
7.99
10.80
13.20
15.26
16.95
18.35
19.59
20.89
22.46
24.30
26.27
28.10
29.59
30.72
31.61
32.41
33.16
33.75
33.95
33.62
32.74
31.48
30.10
28.82
27.75
26.86
26.02
25.06
23.91
22.57
21.15
19.84
18.83
18.19
17.83
17.56
17.15
16.46
15.50
14.35
13.16
12.01
10.94
9.95
9.05
8.29
7.69
7.26
6.97
6.75
6.51
6.18
5.71
5.07
4.29
3.36
2.32
1.22
0.11
-0.97
-1.97
-2.90
-3.78
-4.68
-5.63
-6.67
-7.77
-8.90
-10.06
-11.26
-12.62
-14.26
-16.24
-18.53
-21.01
-23.46
-25.73
-27.75
-29.67
-31.74
-34.31
-37.61
-41.66
-46.11
-50.36
-53.64
-55.17
-54.45
-51.30
-45.94
-38.93
-31.03
-23.02
-15.61
-9.20
-3.95
0.24
3.57
6.30
8.54
10.35
11.75
12.80
13.68
14.63
15.85
17.44
19.30
21.28
23.20
24.93
26.47
27.82
28.93
29.69
29.93
29.58
28.72
27.56
26.33
25.21
24.22
23.30
22.38
21.44
20.53
19.71
19.01
18.36
17.72
17.08
16.51
16.06
15.68
15.23
14.49
13.34
11.85
10.25
8.80
7.68
6.87
6.21
5.50
4.63
3.62
2.59
1.65
0.82
0.08
-0.66
-1.45
-2.29
-3.17
-4.08
-5.06
-6.15
-7.39
-8.76
-10.16
-11.50
-12.70
-13.76
-14.79
-15.93
-17.35
-19.13
-21.29
-23.72
-26.26
-28.73
-31.03
-33.13
-35.18
-37.45
-40.20
-43.64
-47.66
-51.84
-55.40
-57.42
-57.11
-54.03
-48.32
-40.64
-31.93
-23.16
-15.08
-8.08
-2.21
2.63
6.60
9.82
12.33
14.18
15.48
16.42
17.24
18.15
19.29
20.69
22.22
23.70
24.96
25.91
26.57
27.04
27.46
27.88
28.28
28.54
28.52
28.15
27.44
26.50
25.45
24.39
23.34
22.33
21.37
20.49
19.76
19.17
18.66
18.11
17.46
16.69
15.86
15.06
14.30
13.52
12.61
11.53
10.34
9.20
8.28
7.64
7.22
6.82
6.28
5.54
4.67
3.82
3.13
2.68
2.42
2.20
1.82
1.09
-0.12
-1.81
-3.82
-5.91
-7.81
-9.33
-10.45
-11.30
-12.10
-13.11
-14.51
-16.34
-18.55
-21.01
-23.52
-25.91
-28.06
-29.95
-31.73
-33.65
-36.01
-39.01
-42.64
-46.52
-49.96
-52.05
-51.97
-49.24
-43.93
-36.66
-28.41
-20.21
-12.85
-6.70
-1.78
2.12
5.23
7.69
9.54
10.85
11.75
12.47
13.27
14.30
15.56
16.89
18.12
19.18
20.13
21.13
22.31
23.60
24.76
25.50
25.61
25.12
24.26
23.34
22.57
21.97
21.41
20.74
19.90
18.97
18.11
17.42
16.89
16.38
15.78
15.01
14.17
13.41
12.85
12.48
12.16
11.69
10.94
9.91
8.76
7.63
6.64
5.75
4.84
3.77
2.45
0.94
-0.66
-2.19
-3.56
-4.76
-5.82
-6.85
-7.92
-9.11
-10.48
-12.09
-13.99
-16.14
-18.46
-20.79
-22.96
-24.89
-26.58
-28.18
-29.90
-32.03
-34.78
-38.25
-42.33
-46.64
-50.54
-53.27
-54.06
-52.42
-48.25
-41.94
-34.19
-25.88
-17.77
-10.49
-4.34
0.63
4.56
7.69
10.23
12.34
14.07
15.42
16.44
17.25
18.07
19.09
20.39
21.88
23.36
24.68
25.77
26.70
27.52
28.24
28.74
28.86
28.48
27.64
26.49
25.20
23.90
22.68
21.53
20.48
19.51
18.65
17.90
17.22
16.56
15.89
15.20
14.50
13.80
13.10
12.41
11.71
11.00
10.29
9.58
8.87
8.14
7.42
6.71
5.99
5.23
4.40
3.47
2.47
1.42
0.36
-0.71
-1.80
-2.97
-4.23
-5.60
-7.01
-8.37
-9.61
-10.77
-11.95
-13.36
-15.15
-17.38
-19.95
-22.64
-25.18
-27.44
-29.41
-31.26
-33.21
-35.47
-38.17
-41.30
-44.64
-47.83
-50.27
-51.29
-50.24
-46.81
-41.09
-33.66
-25.42
-17.33
-10.14
-4.22
0.42
4.05
7.00
9.48
11.56
13.19
14.35
15.10
15.66
16.28
17.16
18.37
19.81
21.28
22.61
23.70
24.57
25.25
25.70
25.85
25.60
24.92
23.92
22.78
21.72
20.86
20.23
19.76
19.34
18.88
18.32
17.68
16.95
16.15
15.33
14.50
13.70
12.87
11.96
10.88
9.66
8.39
7.22
6.25
5.48
4.71
3.73
2.35
0.55
-1.49
-3.48
-5.17
-6.48
-7.55
-8.67
-10.13
-12.04
-14.33
-16.76
-19.05
-21.05
-22.80
-24.49
-26.37
-28.63
-31.36
-34.52
-37.95
-41.31
-44.08
-45.56
-45.06
-42.13
-36.78
-29.57
-21.42
-13.33
-6.05
0.05
4.93
8.74
11.58
13.53
14.63
15.02
14.96
14.80
14.88
15.41
16.43
17.83
19.44
21.01
22.38
23.46
24.23
24.73
24.98
25.00
24.77
24.26
23.46
22.40
21.13
19.74
18.30
16.86
15.49
14.22
13.08
12.08
11.25
10.57
10.01
9.52
9.02
8.44
7.71
6.80
5.72
4.55
3.40
2.36
1.53
0.88
0.33
-0.24
-1.00
-2.03
-3.36
-5.00
-6.86
-8.87
-10.96
-13.05
-15.12
-17.20
-19.32
-21.54
-23.91
-26.35
-28.79
-31.19
-33.62
-36.29
-39.41
-43.05
-46.96
-50.50
-52.77
-52.90
-50.39
-45.27
-38.11
-29.85
-21.45
-13.64
-6.84
-1.13
3.59
7.45
10.59
13.11
15.05
16.51
17.60
18.48
19.31
20.22
21.30
22.57
23.94
25.32
26.59
27.69
28.55
29.15
29.42
29.33
28.86
28.06
27.03
25.93
24.87
23.89
23.01
22.19
21.42
20.69
19.96
19.23
18.46
17.67
16.92
16.23
15.57
14.85
13.95
12.81
11.46
10.02
8.64
7.40
6.31
5.30
4.28
3.21
2.08
0.89
-0.37
-1.68
-3.03
-4.38
-5.66
-6.86
-7.99
-9.13
-10.33
-11.68
-13.21
-14.94
-16.85
-18.89
-20.96
-22.98
-24.91
-26.80
-28.82
-31.18
-34.06
-37.50
-41.32
-45.15
-48.34
-50.18
-49.97
-47.31
-42.24
-35.28
-27.30
-19.24
-11.88
-5.63
-0.56
3.46
6.62
9.03
10.75
11.87
12.55
13.06
13.65
14.53
15.74
17.16
18.64
20.02
21.21
22.20
23.07
23.87
24.60
25.22
25.62
25.69
25.37
24.63
23.60
22.43
21.34
20.46
19.83
19.35
18.84
18.14
17.15
15.94
14.64
13.43
12.39
11.52
10.68
9.76
8.68
7.49
6.27
5.12
4.03
2.93
1.65
0.09
-1.74
-3.75
-5.76
-7.60
-9.23
-10.72
-12.26
-13.98
-15.95
-18.10
-20.27
-22.33
-24.21
-25.99
-27.85
-30.05
-32.80
-36.19
-40.12
-44.24
-47.98
-50.61
-51.39
-49.79
-45.69
-39.40
-31.66
-23.37
-15.38
-8.27
-2.31
2.46
6.22
9.11
11.27
12.82
13.89
14.68
15.37
16.18
17.22
18.52
20.02
21.63
23.22
24.70
26.03
27.17
28.10
28.78
29.16
29.12
28.56
27.43
25.82
23.93
22.06
20.51
19.46
18.88
18.61
18.39
18.00
17.35
16.53
15.68
14.97
14.43
14.00
13.57
13.01
12.25
11.34
10.38
9.49
8.72
8.04
7.40
6.74
6.03
5.29
4.55
3.82
3.05
2.16
1.07
-0.28
-1.90
-3.72
-5.61
-7.46
-9.19
-10.86
-12.56
-14.42
-16.48
-18.69
-20.90
-22.97
-24.80
-26.38
-27.84
-29.34
-31.09
-33.29
-36.10
-39.59
-43.62
-47.74
-51.26
-53.32
-53.17
-50.37
-44.96
-37.54
-29.04
-20.53
-12.88
-6.58
-1.71
1.99
4.91
7.36
9.51
11.41
13.01
14.31
15.40
16.39
17.40
18.52
19.78
21.15
22.57
23.90
25.02
25.82
26.24
26.28
26.05
25.61
25.00
24.20
23.20
22.03
20.80
19.65
18.67
17.82
16.96
15.96
14.77
13.50
12.29
11.29
10.48
9.77
9.03
8.17
7.18
6.13
5.03
3.86
2.52
1.01
-0.62
-2.20
-3.59
-4.72
-5.71
-6.77
-8.12
-9.85
-11.89
-14.03
-16.04
-17.80
-19.29
-20.67
-22.12
-23.86
-26.05
-28.78
-32.01
-35.56
-39.03
-41.85
-43.30
-42.72
-39.77
-34.53
-27.57
-19.77
-12.03
-5.04
0.88
5.68
9.47
12.36
14.38
15.58
16.02
15.94
15.67
15.58
15.95
16.91
18.34
20.00
21.58
22.85
23.71
24.22
24.52
24.73
24.86
24.81
24.42
23.61
22.42
21.06
19.71
18.55
17.63
16.90
16.24
15.58
14.88
14.15
13.43
12.76
12.13
11.53
10.90
10.24
9.49
8.64
7.62
6.42
5.03
3.51
1.96
0.49
-0.82
-2.03
-3.21
-4.52
-6.02
-7.68
-9.38
-10.99
-12.47
-13.87
-15.37
-17.11
-19.14
-21.32
-23.44
-25.29
-26.85
-28.29
-29.96
-32.23
-35.32
-39.17
-43.38
-47.26
-50.02
-50.93
-49.52
-45.73
-39.91
-32.73
-24.99
-17.40
-10.49
-4.50
0.49
4.50
7.61
9.86
11.35
12.23
12.71
13.06
13.56
14.39
15.65
17.32
19.25
21.20
22.96
24.38
25.41
26.10
26.51
26.68
26.58
26.16
25.38
24.33
23.16
22.02
21.02
20.17
19.40
18.63
17.77
16.83
15.81
14.76
13.68
12.61
11.59
10.66
9.87
9.19
8.50
7.65
6.51
5.08
3.44
1.78
0.25
-1.10
-2.35
-3.65
-5.14
-6.91
-8.93
-11.10
-13.33
-15.51
-17.58
-19.55
-21.46
-23.41
-25.50
-27.86
-30.58
-33.66
-36.99
-40.24
-42.90
-44.37
-44.06
-41.61
-37.03
-30.73
-23.40
-15.85
-8.74
-2.54
2.55
6.50
9.40
11.42
12.72
13.46
13.81
13.94
13.99
14.12
14.47
15.12
16.07
17.29
18.68
20.14
21.58
22.86
23.88
24.50
24.64
24.28
23.50
22.40
21.10
19.70
18.31
17.02
15.92
15.06
14.40
13.87
13.35
12.77
12.12
11.44
10.76
10.09
9.35
8.51
7.51
6.35
5.06
3.67
2.19
0.64
-0.97
-2.60
-4.16
-5.65
-7.07
-8.49
-10.02
-11.74
-13.73
-15.95
-18.32
-20.73
-23.07
-25.26
-27.31
-29.33
-31.52
-34.12
-37.27
-40.96
-44.89
-48.49
-51.03
-51.80
-50.29
-46.38
-40.36
-32.87
-24.72
-16.69
-9.40
-3.14
2.00
6.13
9.40
11.94
13.84
15.14
15.94
16.39
16.72
17.12
17.75
18.61
19.60
20.58
21.42
22.09
22.61
23.03
23.36
23.50
23.36
22.88
22.13
21.32
20.71
20.52
20.86
21.66
22.73
23.82
24.68
25.16
25.17
24.75
24.00
23.05
21.98
20.85
19.63
18.27
16.73
15.03
13.26
11.52
9.92
8.51
7.26
6.10
4.92
3.61
2.13
0.49
-1.25
-3.01
-4.71
-6.32
-7.86
-9.38
-10.96
-12.66
-14.49
-16.41
-18.35
-20.20
-21.90
-23.47
-25.03
-26.76
-28.90
-31.57
-34.76
-38.24
-41.60
-44.28
-45.71
-45.46
-43.28
-39.18
-33.48
-26.74
-19.67
-12.95
-7.09
-2.35
1.30
4.02
6.02
7.45
8.40
8.99
9.40
9.94
10.87
12.34
14.35
16.63
18.88
20.79
22.20
23.12
23.65
23.89
23.88
23.58
22.92
21.85
20.45
18.85
17.29
15.97
15.05
14.53
14.29
14.12
13.82
13.25
12.41
11.38
10.28
9.23
8.29
7.45
6.64
5.80
4.90
3.90
2.80
1.61
0.33
-1.06
-2.55
-4.13
-5.76
-7.36
-8.89
-10.34
-11.82
-13.48
-15.44
-17.72
-20.20
-22.70
-25.06
-27.27
-29.46
-31.85
-34.65
-37.89
-41.33
-44.46
-46.64
-47.20
-45.70
-42.01
-36.42
-29.49
-21.96
-14.56
-7.86
-2.20
2.30
5.75
8.38
10.45
12.16
13.60
14.79
15.71
16.44
17.13
17.96
19.00
20.21
21.43
22.53
23.46
24.30
25.16
26.03
26.76
27.10
26.85
25.97
24.57
22.89
21.18
19.63
18.34
17.32
16.51
15.84
15.22
14.57
13.87
13.14
12.44
11.85
11.39
11.04
10.73
10.34
9.74
8.86
7.70
6.35
4.99
3.80
2.83
2.04
1.23
0.21
-1.14
-2.80
-4.60
-6.39
-8.07
-9.69
-11.33
-13.09
-14.97
-16.88
-18.70
-20.38
-21.98
-23.63
-25.56
-27.96
-30.96
-34.58
-38.73
-43.18
-47.48
-51.02
-53.09
-53.03
-50.46
-45.44
-38.46
-30.35
-22.03
-14.27
-7.56
-2.04
2.35
5.84
8.65
10.91
12.70
14.05
15.02
15.77
16.48
17.35
18.47
19.80
21.26
22.70
24.01
25.15
26.06
26.69
26.91
26.65
25.97
25.03
24.09
23.34
22.80
22.36
21.82
21.09
20.20
19.27
18.45
17.78
17.18
16.57
15.88
15.14
14.38
13.59
12.66
11.52
10.13
8.60
7.11
5.80
4.72
3.77
2.78
1.62
0.31
-1.08
-2.42
-3.64
-4.76
-5.90
-7.18
-8.72
-10.55
-12.65
-14.95
-17.38
-19.79
-22.09
-24.22
-26.21
-28.22
-30.51
-33.31
-36.66
-40.28
-43.57
-45.73
-46.03
-43.96
-39.51
-33.09
-25.45
-17.47
-9.94
-3.39
1.92
6.01
9.05
11.25
12.78
13.78
14.37
14.71
15.01
15.51
16.34
17.55
19.01
20.50
21.84
22.89
23.66
24.23
24.69
25.03
25.19
25.03
24.41
23.35
22.01
20.67
19.59
18.94
18.70
18.64
18.48
18.01
17.18
16.09
14.95
13.94
13.14
12.49
11.87
11.22
10.52
9.86
9.30
8.84
8.39
7.80
6.99
6.00
4.96
4.01
3.17
2.37
1.42
0.16
-1.44
-3.25
-5.02
-6.56
-7.77
-8.75
-9.70
-10.89
-12.47
-14.48
-16.80
-19.21
-21.48
-23.46
-25.13
-26.56
-27.88
-29.23
-30.76
-32.62
-34.99
-37.98
-41.49
-45.14
-48.26
-50.01
-49.64
-46.79
-41.58
-34.63
-26.84
-19.12
-12.15
-6.28
-1.53
2.29
5.40
7.99
10.16
11.95
13.44
14.76
16.07
17.49
18.98
20.40
21.57
22.38
22.90
23.31
23.83
24.55
25.36
25.99
26.18
25.79
24.87
23.63
22.34
21.17
20.23
19.52
18.97
18.51
18.05
17.52
16.88
16.15
15.43
14.83
14.43
14.21
14.05
13.77
13.24
12.45
11.49
10.49
9.52
8.58
7.56
6.38
5.06
3.69
2.41
1.32
0.35
-0.59
-1.63
-2.78
-3.96
-5.05
-5.97
-6.75
-7.53
-8.45
-9.64
-11.15
-12.97
-15.06
-17.32
-19.65
-21.90
-23.98
-25.90
-27.78
-29.82
-32.28
-35.23
-38.62
-42.15
-45.27
-47.33
-47.70
-45.96
-42.02
-36.21
-29.15
-21.63
-14.39
-7.98
-2.67
1.45
4.50
6.62
8.00
8.82
9.22
9.37
9.51
9.86
10.63
11.86
13.47
15.17
