1532335511.000000, IBI
15.547587,1.109426
16.657012,1.109426
17.719561,1.062549
29.360719,1.031297
30.235759,0.875040
31.376436,1.140677
32.501488,1.125051
33.689042,1.187554
34.845345,1.156303
36.048525,1.203180
37.267331,1.218806
38.408008,1.140677
46.064609,0.968794
47.017777,0.953169
48.205332,1.187554
58.315169,1.265683
64.940473,1.093800
66.049898,1.109426
67.018693,0.968794
68.065616,1.046923
69.206293,1.140677
70.221964,1.015671
71.284513,1.062549
72.362687,1.078174
73.456487,1.093800
74.550287,1.093800
75.534708,0.984420
76.534753,1.000046
77.581676,1.046923
78.597348,1.015671
79.597394,1.000046
80.597439,1.000046
81.613111,1.015671
82.581905,0.968794
83.566325,0.984420
84.456991,0.890666
85.363282,0.906291
86.347703,0.984420
87.269620,0.921917
88.207163,0.937543
89.300963,1.093800
90.410388,1.109426
91.535440,1.125051
92.613614,1.078174
93.629286,1.015671
94.582454,0.953169
95.519997,0.937543
96.395037,0.875040
97.270077,0.875040
98.098240,0.828163
98.910778,0.812537
99.910823,1.000046
100.988998,1.078174
102.067172,1.078174
103.270352,1.203180
109.317504,0.968794
110.348801,1.031297
141.318969,1.062549
142.194009,0.875040
143.131552,0.937543
169.351502,0.937543
170.148413,0.796911
171.023453,0.875040
171.898494,0.875040
172.914165,1.015671
173.867334,0.953169
174.851754,0.984420
175.836174,0.984420
176.773717,0.937543
177.773762,1.000046
178.820685,1.046923
179.867608,1.046923
180.914531,1.046923
182.039583,1.125051
183.180260,1.140677
184.180306,1.000046
185.305357,1.125051
186.414783,1.109426
187.586712,1.171929
188.680512,1.093800
190.024323,1.343812
191.133749,1.109426
192.336929,1.203180
193.571361,1.234432
194.712038,1.140677
195.977721,1.265683
197.305907,1.328186
198.602841,1.296934
199.884150,1.281309
201.056078,1.171929
202.290510,1.234432
203.462438,1.171929
204.634367,1.171929
205.900050,1.265683
207.118856,1.218806
208.384539,1.265683
209.697099,1.312560
210.962782,1.265683
212.212839,1.250057
213.556650,1.343812
214.837959,1.281309
216.103642,1.265683
217.431828,1.328186
218.666259,1.234432
219.931942,1.265683
221.181999,1.250057
222.385180,1.203180
223.666488,1.281309
224.932171,1.265683
226.213480,1.281309
227.557291,1.343812
228.838600,1.281309
230.104283,1.265683
231.354340,1.250057
232.666900,1.312560
233.948209,1.281309
235.213892,1.265683
236.573329,1.359437
237.885889,1.312560
239.260952,1.375063
240.636015,1.375063
241.979826,1.343812
243.339264,1.359437
244.542444,1.203180
245.558115,1.015671
246.620664,1.062549
247.730090,1.109426
248.933270,1.203180
250.370836,1.437566
251.574016,1.203180
252.980330,1.406314
254.183510,1.203180
255.386690,1.203180
256.652373,1.265683
257.871179,1.218806
259.355622,1.484443
260.715059,1.359437
262.136999,1.421940
263.496436,1.359437
264.902751,1.406314
266.355942,1.453192
267.590374,1.234432
269.012314,1.421940
270.340500,1.328186
271.574931,1.234432
272.871866,1.296934
274.121923,1.250057
275.481360,1.359437
277.012680,1.531320
278.481497,1.468817
279.950315,1.468817
281.294126,1.343812
282.700440,1.406314
283.919246,1.218806
285.184929,1.265683
286.513115,1.328186
287.731921,1.218806
289.122609,1.390689
290.294538,1.171929
291.575847,1.281309
292.763401,1.187554
293.982207,1.218806
295.294767,1.312560
296.482321,1.187554
297.779256,1.296934
299.013687,1.234432
300.404376,1.390689
301.763813,1.359437
303.045122,1.281309
304.310805,1.265683
305.435856,1.125051
306.685913,1.250057
307.889093,1.203180
309.154776,1.265683
310.436085,1.281309
311.608014,1.171929
312.811194,1.203180
313.983122,1.171929
315.248805,1.265683
316.686371,1.437566
317.998931,1.312560
319.295866,1.296934
320.577174,1.281309
321.905360,1.328186
323.124166,1.218806
324.389849,1.265683
325.624280,1.234432
326.858712,1.234432
328.093143,1.234432
329.265072,1.171929
330.452626,1.187554
331.577678,1.125051
332.765232,1.187554
334.046541,1.281309
335.265347,1.218806
336.546655,1.281309
337.812338,1.265683
339.078021,1.265683
340.406207,1.328186
341.609387,1.203180
342.875070,1.265683
344.093876,1.218806
345.406436,1.312560
346.672119,1.265683
347.890924,1.218806
349.140982,1.250057
350.375413,1.234432
351.609845,1.234432
352.875528,1.265683
354.125585,1.250057
355.344391,1.218806
356.563196,1.218806
357.828879,1.265683
359.078937,1.250057
360.360245,1.281309
361.657180,1.296934
362.954114,1.296934
364.266674,1.312560
365.454228,1.187554
366.719911,1.265683
367.969969,1.250057
369.188774,1.218806
370.376329,1.187554
371.548257,1.171929
372.751437,1.203180
374.001495,1.250057
375.157798,1.156303
376.376603,1.218806
377.579783,1.203180
378.689209,1.109426
379.892389,1.203180
381.033067,1.140677
382.236247,1.203180
383.439427,1.203180
384.564478,1.125051
385.767658,1.203180
386.877084,1.109426
388.049013,1.171929
389.283444,1.234432
390.408496,1.125051
391.642927,1.234432
392.783604,1.140677
393.893030,1.109426
395.033707,1.140677
396.127507,1.093800
397.299436,1.171929
398.486990,1.187554
399.471411,0.984420
400.362076,0.890666
401.237116,0.875040
411.518837,1.140677
412.675140,1.156303
413.878320,1.203180
415.034623,1.156303
416.175300,1.140677
417.331603,1.156303
418.472280,1.140677
419.597332,1.125051
420.722383,1.125051
421.863060,1.140677
433.316710,1.140677
434.457387,1.140677
435.644942,1.187554
436.801244,1.156303
437.910670,1.109426
439.066973,1.156303
455.802114,1.109426
457.114674,1.312560
462.396166,1.046923
463.474340,1.078174
464.583766,1.109426
465.677566,1.093800
466.865121,1.187554
467.990172,1.125051
469.177727,1.187554
470.396532,1.218806
471.521584,1.125051
472.693512,1.171929
473.834190,1.140677
474.943615,1.109426
476.084293,1.140677
477.162467,1.078174
478.271893,1.109426
479.428196,1.156303
480.537621,1.109426
481.693924,1.156303
482.818976,1.125051
483.975279,1.156303
485.147207,1.171929
486.241008,1.093800
487.334808,1.093800
488.459859,1.125051
489.569285,1.109426
490.725588,1.156303
491.897516,1.171929
492.975691,1.078174
494.116368,1.140677
495.272671,1.156303
496.303968,1.031297
497.382143,1.078174
498.413440,1.031297
499.350983,0.937543
500.257274,0.906291
501.210443,0.953169
502.226114,1.015671
503.226160,1.000046
504.319960,1.093800
505.476263,1.156303
506.538812,1.062549
507.679489,1.140677
508.804540,1.125051
509.898340,1.093800
511.023392,1.125051
512.101566,1.078174
513.164115,1.062549
514.242289,1.078174
515.257961,1.015671
516.242381,0.984420
517.320555,1.078174
518.539361,1.218806
519.680038,1.140677
520.914470,1.234432
522.102024,1.187554
523.289578,1.187554
524.492759,1.203180
525.633436,1.140677
526.742862,1.109426
527.899164,1.156303
529.024216,1.125051
530.164893,1.140677
531.321196,1.156303
532.414996,1.093800
533.524422,1.109426
534.633848,1.109426
535.727648,1.093800
536.883951,1.156303
538.055879,1.171929
539.196557,1.140677
540.352859,1.156303
541.509162,1.156303
542.634214,1.125051
543.774891,1.140677
544.946820,1.171929
546.056246,1.109426
547.150046,1.093800
548.134466,0.984420
549.103260,0.968794
550.118932,1.015671
551.150229,1.031297
552.212777,1.062549
553.119069,0.906291
554.119115,1.000046
555.212915,1.093800
556.244212,1.031297
557.244258,1.000046
558.322432,1.078174
559.494361,1.171929
560.572535,1.078174
561.713212,1.140677
562.807012,1.093800
563.853935,1.046923
564.947735,1.093800
566.072787,1.125051
567.135335,1.062549
568.276013,1.140677
569.354187,1.078174
570.369859,1.015671
571.494910,1.125051
572.682464,1.187554
573.870019,1.187554
574.995070,1.125051
576.135747,1.140677
577.276425,1.140677
578.385850,1.109426
579.526528,1.140677
580.682831,1.156303
581.807882,1.125051
582.979811,1.171929
584.120488,1.140677
585.261165,1.140677
586.448720,1.187554
587.636274,1.187554
588.761325,1.125051
589.917628,1.156303
591.058306,1.140677
592.183357,1.125051
593.308408,1.125051
594.417834,1.109426
595.449131,1.031297
596.527306,1.078174
597.605480,1.078174
598.636777,1.031297
599.574320,0.937543
600.558740,0.984420
601.683792,1.125051
602.840095,1.156303
603.933895,1.093800
605.090198,1.156303
606.230875,1.140677
607.324675,1.093800
608.434101,1.109426
609.527901,1.093800
610.496695,0.968794
611.434238,0.937543
612.309278,0.875040
613.262447,0.953169
614.278118,1.015671
615.325041,1.046923
616.434467,1.109426
617.575144,1.140677
618.715822,1.140677
619.887750,1.171929
621.028427,1.140677
622.137853,1.109426
623.278530,1.140677
624.372330,1.093800
625.481756,1.109426
626.606808,1.125051
627.731859,1.125051
628.825659,1.093800
629.966336,1.140677
631.075762,1.109426
632.185188,1.109426
633.357117,1.171929
634.450917,1.093800
635.575968,1.125051
636.716645,1.140677
637.779194,1.062549
638.888620,1.109426
639.966794,1.078174
640.998091,1.031297
642.013763,1.015671
642.998183,0.984420
644.045106,1.046923
645.154532,1.109426
646.217080,1.062549
647.342132,1.125051
648.404680,1.062549
649.482855,1.078174
650.607906,1.125051
651.701706,1.093800
652.826758,1.125051
653.920558,1.093800
654.998732,1.078174
669.405642,1.187554
670.624448,1.218806
671.858879,1.234432
673.030808,1.171929
674.171485,1.140677
675.296536,1.125051
676.421588,1.125051
677.515388,1.093800
678.609188,1.093800
679.656111,1.046923
680.765537,1.109426
681.843711,1.078174
682.953137,1.109426
684.078188,1.125051
685.234491,1.156303
686.343917,1.109426
691.547280,1.140677
692.625455,1.078174
693.547372,0.921917
694.516166,0.968794
695.594341,1.078174
696.625638,1.031297
697.641309,1.015671
698.610104,0.968794
699.625775,1.015671
700.688324,1.062549
701.719621,1.031297
702.719667,1.000046
703.766590,1.046923
704.813513,1.046923
705.829184,1.015671
706.891733,1.062549
707.985533,1.093800
709.032456,1.046923
710.079379,1.046923
711.157553,1.078174
712.204476,1.046923
713.220147,1.015671
714.267070,1.046923
715.267116,1.000046
716.251536,0.984420
717.251582,1.000046
718.376633,1.125051
719.564188,1.187554
720.642362,1.078174
721.767414,1.125051
722.908091,1.140677
723.892511,0.984420
724.876931,0.984420
725.892602,1.015671
726.908274,1.015671
727.892694,0.984420
728.955243,1.062549
730.049043,1.093800
731.127217,1.078174
732.267894,1.140677
733.346069,1.078174
734.471120,1.125051
735.580546,1.109426
736.564966,0.984420
737.830649,1.265683
739.252589,1.421940
740.487020,1.234432
745.330992,1.078174
746.299787,0.968794
747.440464,1.140677
748.487387,1.046923
749.456181,0.968794
750.378098,0.921917
751.440647,1.062549
752.596950,1.156303
753.675124,1.078174
754.831427,1.156303
756.003356,1.171929
757.175284,1.171929
758.378464,1.203180
759.581645,1.203180
760.737947,1.156303
761.816122,1.078174
837.897729,0.734409
838.757144,0.859414
839.585307,0.828163
895.916010,0.578151
942.355636,0.578151
942.871284,0.515649
943.418185,0.546900
944.074465,0.656280
952.574854,0.531274
953.012374,0.437520
953.481145,0.468771
953.981168,0.500023
954.512442,0.531274
954.918711,0.406269
957.606334,0.500023
958.075105,0.468771
958.606380,0.531274
959.231408,0.625029
967.169272,0.531274
972.669523,0.578151
991.185996,0.640654
1008.811803,0.437520
1009.327451,0.515649
1009.858726,0.531274
1010.343123,0.484397
1010.780643,0.437520
1011.311917,0.531274
1011.843192,0.531274
1033.844199,0.593777
1034.312970,0.468771
1170.569207,0.796911
1207.461521,0.500023
1207.899041,0.437520
1208.414690,0.515649
1209.024092,0.609403
1225.556099,0.750034
1226.415514,0.859414
1227.165548,0.750034
1255.073075,0.531274
1255.588724,0.515649
1256.104373,0.515649
1266.589227,0.593777
1267.120502,0.531274
1267.683028,0.562526
1268.245553,0.562526
1268.854956,0.609403
1296.043701,0.625029
1320.935465,0.734409
1321.732377,0.796911
1328.154546,0.734409
1338.014372,0.625029
1338.670652,0.656280
1339.358183,0.687531
1340.076966,0.718783
1340.748872,0.671906
1341.436404,0.687531
1342.092684,0.656280
1342.795841,0.703157
1343.467746,0.671906
1344.202155,0.734409
1344.858435,0.656280
1345.483464,0.625029
1346.217872,0.734409
1346.796024,0.578151
1347.514807,0.718783
1348.171087,0.656280
1348.874244,0.703157
1349.483647,0.609403
1350.108675,0.625029
1350.764956,0.656280
1351.405610,0.640654
1352.140018,0.734409
1352.765047,0.625029
1353.483830,0.718783
1354.218239,0.734409
1397.673353,0.796911
1398.392136,0.718783
1470.442309,0.609403
1471.098589,0.656280
1527.741807,0.703157
1528.476215,0.734409
1529.241875,0.765660
1634.199805,0.828163
1635.012342,0.812537
1635.840505,0.828163
1711.968990,0.781286
1814.254922,0.687531
1814.958079,0.703157
1815.692487,0.734409
1816.411270,0.718783
1817.130053,0.718783
1817.817585,0.687531
1818.536368,0.718783
1819.255151,0.718783
1819.989559,0.734409
1820.708342,0.718783
1821.536505,0.828163
1822.380294,0.843789
1826.427354,0.843789
1827.239891,0.812537
1934.041655,0.671906
1955.870779,0.609403
1956.589562,0.718783
1957.214591,0.625029
1976.934243,0.703157
1981.450075,0.625029
1982.059478,0.609403
2000.154056,0.546900
2035.327541,0.734409
2036.077575,0.750034
2036.858861,0.781286
2037.655773,0.796911
2038.421433,0.765660
2039.187093,0.765660
2039.999630,0.812537
2055.078445,0.718783
2097.002239,0.671906
2118.878241,0.781286
2119.597023,0.718783
2120.331432,0.734409
2121.097092,0.765660
2121.862752,0.765660
2122.659664,0.796911
2123.487827,0.828163
2124.269112,0.781286
2125.112901,0.843789
2125.941064,0.828163
2126.784853,0.843789
2127.691144,0.906291
2128.566184,0.875040
2129.425598,0.859414
2179.709150,0.953169
2180.709196,1.000046
2181.662364,0.953169
2182.584282,0.921917
2183.506199,0.921917
2184.381239,0.875040
2185.287530,0.906291
2186.162570,0.875040
2194.928597,0.796911
2195.663005,0.734409
2196.397414,0.734409
2197.178700,0.781286
2197.975611,0.796911
2198.772523,0.796911
2199.631937,0.859414
2200.475726,0.843789
2201.350766,0.875040
2202.210180,0.859414
2203.038343,0.828163
2203.819629,0.781286
2204.663417,0.843789
2205.444703,0.781286
2206.319743,0.875040
2207.069777,0.750034
2207.882315,0.812537
2208.757355,0.875040
2209.616769,0.859414
2210.523061,0.906291
2211.398101,0.875040
2212.241889,0.843789
2213.023175,0.781286
2277.213613,0.562526
2277.682385,0.468771
2278.338665,0.656280
2278.963693,0.625029
2279.432465,0.468771
2280.088745,0.656280
2383.765366,0.515649
2384.374768,0.609403
2397.203481,0.703157
2415.094925,0.500023
2433.705152,0.656280
2454.331096,0.609403
2454.956124,0.625029
2470.378705,0.578151
2561.054731,0.468771
2568.492571,0.468771
2568.930091,0.437520
2569.336360,0.406269
2577.774246,0.500023
2578.227392,0.453146
2578.602409,0.375017
2591.415496,0.484397
2591.868641,0.453146
2592.290536,0.421894
2592.821810,0.531274
2593.274956,0.453146
2603.244162,0.468771
2607.291222,0.515649
2607.713117,0.421894
2608.197514,0.484397
2608.619408,0.421894
2611.885183,0.515649
2612.385206,0.500023
2617.947960,0.593777
2631.589210,0.515649
2632.151735,0.562526
2632.604881,0.453146
2633.120530,0.515649
2633.636178,0.515649
2716.374341,0.515649
2717.030621,0.656280
2722.687130,0.703157
2729.874959,0.656280
2750.922797,0.531274
2751.500949,0.578151
2752.188480,0.687531
2760.720121,0.484397
2783.064893,0.500023
2783.689922,0.625029
2784.236822,0.546900
2784.846225,0.609403
2785.377499,0.531274
2786.033779,0.656280
2786.518177,0.484397
2787.158831,0.640654
2787.658854,0.500023
2788.299508,0.640654
2788.783905,0.484397
2789.408934,0.625029
2789.908957,0.500023
2790.502734,0.593777
2791.018383,0.515649
2791.627785,0.609403
2792.127808,0.500023
2792.768463,0.640654
2802.143892,0.531274
2802.800172,0.656280
2803.284569,0.484397
2803.909598,0.625029
2804.393995,0.484397
2805.019023,0.625029
2805.519046,0.500023
2806.112823,0.593777
2806.644098,0.531274
2807.269126,0.625029
2817.128953,0.640654
2817.613350,0.484397
2818.254004,0.640654
2824.113647,0.515649
2824.769928,0.656280
2829.410765,0.468771
2963.838793,0.625029
2964.479448,0.640654
2973.823625,0.609403
3015.278648,0.750034
3016.091185,0.812537
3017.013102,0.921917
3017.935019,0.921917
3018.794434,0.859414
3019.716351,0.921917
3030.763732,0.953169
3036.623375,0.734409
3037.357784,0.734409
3038.248449,0.890666
3039.295372,1.046923
3040.217289,0.921917
3041.186084,0.968794
3042.201755,1.015671
3043.092421,0.890666
3044.045590,0.953169
3044.951881,0.906291
3045.905050,0.953169
3046.951973,1.046923
3047.952018,1.000046
3048.967690,1.015671
3050.061490,1.093800
3051.108413,1.046923
3052.108459,1.000046
3053.014750,0.906291
3053.936667,0.921917
3054.811707,0.875040
3055.577368,0.765660
3056.405530,0.828163
3057.311822,0.906291
3058.296242,0.984420
3059.124405,0.828163
3060.015071,0.890666
3060.811982,0.796911
3061.671396,0.859414
3062.515185,0.843789
3063.374599,0.859414
3064.218388,0.843789
3064.968422,0.750034
3082.172335,0.984420
3083.156755,0.984420
3084.063046,0.906291
3084.906835,0.843789
3085.703747,0.796911
3086.453781,0.750034
3087.219441,0.765660
3088.047604,0.828163
3088.985147,0.937543
3089.891438,0.906291
3090.860233,0.968794
3091.782150,0.921917
3092.735318,0.953169
3093.672861,0.937543
3094.594779,0.921917
3095.563573,0.968794
3096.469864,0.906291
3097.438659,0.968794
3123.330469,0.906291
3154.081877,0.859414
3173.770278,0.859414
3174.707821,0.937543
3175.598486,0.890666
3224.022578,0.890666
3224.928869,0.906291
3225.819535,0.890666
3226.741452,0.921917
3227.585241,0.843789
3228.429030,0.843789
3229.272818,0.843789
3230.085356,0.812537
3230.976021,0.890666
3231.851061,0.875040
3232.757353,0.906291
3233.663644,0.906291
3234.523059,0.859414
3235.398099,0.875040
3236.210636,0.812537
3237.070050,0.859414
3237.913839,0.843789
3238.820130,0.906291
3239.757673,0.937543
3240.695216,0.937543
3260.758635,0.890666
3261.680552,0.921917
3262.586843,0.906291
3275.524935,0.875040
3276.540607,1.015671
3277.540653,1.000046
3278.540699,1.000046
3279.478241,0.937543
3280.540790,1.062549
3299.276023,0.921917
3300.338571,1.062549
3301.322991,0.984420
3313.526675,0.812537
3380.295356,0.828163
3388.998879,0.828163
3389.905171,0.906291
3390.905217,1.000046
3391.842760,0.937543
3392.749051,0.906291
3441.235646,0.859414
3442.079434,0.843789
3443.016977,0.937543
3443.892017,0.875040
3508.457473,0.875040
3509.316887,0.859414
3510.082547,0.765660
3511.098219,1.015671
3517.364130,1.015671
3518.239171,0.875040
3519.145462,0.906291
3520.239262,1.093800
3524.833222,0.812537
3525.802017,0.968794
3526.802063,1.000046
3527.645851,0.843789
3528.599020,0.953169
3529.489686,0.890666
3530.489731,1.000046
3536.427503,0.906291
3542.349649,0.953169
3559.928579,1.000046
3560.897373,0.968794
3561.897419,1.000046
3562.881839,0.984420
3563.850633,0.968794
3564.803802,0.953169
3565.897602,1.093800
3566.897648,1.000046
3567.757062,0.859414
3568.694605,0.937543
3569.616522,0.921917
3570.491562,0.875040
3588.429883,0.875040
3589.383052,0.953169
3590.383098,1.000046
3591.351892,0.968794
3614.977974,0.687531
3626.244114,0.750034
3627.134780,0.890666
3635.182024,1.000046
3636.150818,0.968794
3637.135238,0.984420
3638.088407,0.953169
3676.996437,0.796911
3734.467818,1.031297
3752.390513,0.828163
3753.187425,0.796911
3754.031214,0.843789
3754.859376,0.828163
3761.531557,0.953169
3762.562854,1.031297
3770.860109,0.906291
3771.657020,0.796911
3772.485183,0.828163
3773.297720,0.812537
3774.157135,0.859414
3775.032175,0.875040
3801.142745,0.718783
3801.939657,0.796911
3802.845948,0.906291
3809.236866,0.859414
3810.096280,0.859414
3816.393444,0.906291
3817.237232,0.843789
3818.190401,0.953169
3819.081067,0.890666
3820.065487,0.984420
3821.034281,0.968794
3822.034327,1.000046
3822.846864,0.812537
3823.675027,0.828163
3824.596944,0.921917
3825.612616,1.015671
3826.643913,1.031297
3827.643959,1.000046
3828.628379,0.984420
3829.519044,0.890666
3830.425336,0.906291
3831.237873,0.812537
3832.003533,0.765660
3852.379466,0.796911
3853.192003,0.812537
3854.113920,0.921917
3855.035838,0.921917
3897.490906,0.843789
3904.788115,0.875040
3905.725658,0.937543
3906.663201,0.937543
3907.616369,0.953169
3958.509324,0.687531
3992.823395,0.531274
3993.573429,0.750034
3996.823578,0.703157
4000.495621,0.593777
4001.089398,0.593777
4001.698801,0.609403
4002.339455,0.640654
4027.449980,0.593777
4028.059382,0.609403
4028.668785,0.609403
4029.262563,0.593777
4029.887591,0.625029
4030.387614,0.500023
4031.090771,0.703157
4049.325981,0.625029
4049.919758,0.593777
4050.622915,0.703157
4075.405300,0.609403
4075.952200,0.546900
4109.500610,0.656280
4110.172516,0.671906
4245.725596,0.671906
4254.179108,0.765660
4261.163803,0.625029
4261.882586,0.718783
4262.616994,0.734409
4263.304526,0.687531
4311.884875,0.875040
4312.681786,0.796911
4461.829238,0.765660
4462.719904,0.890666
4463.454313,0.734409
4464.298101,0.843789
4465.110638,0.812537
4465.860673,0.750034
4466.673210,0.812537
4467.501373,0.828163
4468.267033,0.765660
4469.032693,0.765660
4469.860856,0.828163
4470.610890,0.750034
4481.736399,0.796911
4482.330177,0.593777
4483.127088,0.796911
4484.017754,0.890666
4484.720911,0.703157
4485.345940,0.625029
4497.033975,0.687531
4497.784009,0.750034
4498.409038,0.625029
4498.955938,0.546900
4499.674721,0.718783
4500.221621,0.546900
4500.971655,0.750034
4501.612309,0.640654
4502.362344,0.750034
4551.723978,0.812537
4552.505264,0.781286
4553.333427,0.828163
4554.177215,0.843789
4555.021004,0.843789
4555.833541,0.812537
4556.583575,0.750034
4557.333610,0.750034
4558.114896,0.781286
4558.833678,0.718783
4559.614964,0.781286
4560.536881,0.921917
4561.349419,0.812537
4562.052576,0.703157
4562.849487,0.796911
4563.521393,0.671906
4564.333930,0.812537
4569.006019,0.765660
4569.881059,0.875040
4570.646719,0.765660
4571.412379,0.765660
4572.178039,0.765660
4572.990577,0.812537
4573.771862,0.781286
4574.506271,0.734409
4575.240680,0.734409
4586.350563,0.906291
4587.303732,0.953169
4588.147520,0.843789
4589.116315,0.968794
4590.006980,0.890666
4590.866395,0.859414
4591.600803,0.734409
4592.225832,0.625029
4603.116956,0.859414
4603.960744,0.843789
4604.851410,0.890666
4605.773327,0.921917
4606.710870,0.937543
4607.648413,0.937543
4608.554704,0.906291
4609.445370,0.890666
4610.257907,0.812537
4611.054819,0.796911
4611.914233,0.859414
4612.820525,0.906291
4613.804945,0.984420
4614.711236,0.906291
4615.695656,0.984420
4616.680076,0.984420
4617.539491,0.859414
4618.398905,0.859414
4619.305197,0.906291
4620.273991,0.968794
4621.274037,1.000046
4622.039697,0.765660
4622.914737,0.875040
4623.774151,0.859414
4624.571063,0.796911
4625.321097,0.750034
4626.086757,0.765660
4626.821166,0.734409
4627.743083,0.921917
4628.446240,0.703157
4629.211900,0.765660
4630.055689,0.843789
4630.977606,0.921917
4631.852646,0.875040
4632.696434,0.843789
4633.508972,0.812537
4634.384012,0.875040
4635.165298,0.781286
4635.977835,0.812537
4636.743495,0.765660
4651.041024,1.000046
4652.056695,1.015671
4653.009864,0.953169
4653.947407,0.937543
4654.728693,0.781286
4655.556856,0.828163
4656.338141,0.781286
4663.025948,0.843789
4664.025993,1.000046
4667.729288,0.921917
4687.058298,0.828163
4687.902086,0.843789
4688.777126,0.875040
4689.605289,0.828163
4690.464704,0.859414
4691.386621,0.921917
4692.199158,0.812537
4693.027321,0.828163
4700.949558,0.828163
4701.793347,0.843789
4702.668387,0.875040
4703.605930,0.937543
4704.465344,0.859414
4705.371636,0.906291
4711.684425,0.968794
4718.309728,0.906291
4719.262897,0.953169
4720.153563,0.890666
4721.122357,0.968794
4721.981771,0.859414
4722.841186,0.859414
4723.700600,0.859414
4724.466260,0.765660
4725.294423,0.828163
4726.075709,0.781286
4726.903872,0.828163
4727.778912,0.875040
4728.560197,0.781286
4729.388360,0.828163
4730.294652,0.906291
4731.091563,0.796911
4731.872849,0.781286
4732.716638,0.843789
4733.451046,0.734409
4734.232332,0.781286
4734.935489,0.703157
4735.654272,0.718783
4736.466809,0.812537
4737.341849,0.875040
4738.279392,0.937543
4739.185684,0.906291
4740.076349,0.890666
4740.920138,0.843789
4741.732675,0.812537
4742.467084,0.734409
4743.248370,0.781286
4744.029655,0.781286
4744.857818,0.828163
4745.732858,0.875040
4746.639150,0.906291
4747.514190,0.875040
4748.295476,0.781286
4749.076761,0.781286
4749.811170,0.734409
4750.639333,0.828163
4751.436244,0.796911
4752.280033,0.843789
4753.092570,0.812537
4753.842605,0.750034
4754.592639,0.750034
4755.295796,0.703157
4756.061456,0.765660
4756.827116,0.765660
4757.592776,0.765660
4758.311559,0.718783
4774.265415,0.937543
4775.187332,0.921917
4776.062372,0.875040
4776.953038,0.890666
4777.765575,0.812537
4778.484358,0.718783
4779.203141,0.718783
4779.984426,0.781286
4780.828215,0.843789
4805.360588,0.750034
4806.141874,0.781286
4806.923160,0.781286
4807.751323,0.828163
4808.579485,0.828163
4809.438900,0.859414
4810.282688,0.843789
4811.142103,0.859414
4811.923388,0.781286
4812.751551,0.828163
4813.610966,0.859414
4814.439129,0.828163
4815.267292,0.828163
4816.126706,0.859414
4817.048623,0.921917
4817.892412,0.843789
4818.845580,0.953169
4819.704995,0.859414
4820.642538,0.937543
4821.517578,0.875040
4822.376992,0.859414
4823.236406,0.859414
4824.064569,0.828163
4824.861481,0.796911
4825.705269,0.843789
4826.424052,0.718783
4827.205338,0.781286
4838.377724,0.859414
4839.237139,0.859414
4840.065302,0.828163
4840.924716,0.859414
4841.721627,0.796911
4842.502913,0.781286
4848.846954,0.734409
4849.628239,0.781286
4850.581408,0.953169
4863.003852,0.796911
4863.832015,0.828163
4864.660178,0.828163
4865.488341,0.828163
4866.347755,0.859414
4867.254046,0.906291
4868.144712,0.890666
4869.097881,0.953169
4869.847915,0.750034
4870.644827,0.796911
4871.472990,0.828163
4872.332404,0.859414
4873.160567,0.828163
4873.988730,0.828163
4874.848144,0.859414
4875.723184,0.875040
4876.457593,0.734409
4877.285756,0.828163
4877.988913,0.703157
4884.270450,0.859414
4888.317511,0.843789
4889.114422,0.796911
4889.926959,0.812537
4890.708245,0.781286
4891.520782,0.812537
4892.255191,0.734409
4893.005225,0.750034
4893.770885,0.765660
4894.614674,0.843789
4895.411585,0.796911
4900.943089,0.781286
4901.677497,0.734409
4902.474409,0.796911
4929.835036,0.812537
4930.647573,0.812537
4931.475736,0.828163
4932.319525,0.843789
4933.132062,0.812537
4933.944599,0.812537
4934.663382,0.718783
4935.475919,0.812537
4936.304082,0.828163
4949.367180,0.890666
4950.117214,0.750034
4961.195847,0.781286
4962.055261,0.859414
4975.774639,0.781286
4976.571550,0.796911
4977.384088,0.812537
4984.509414,0.765660
4985.275074,0.765660
4986.071985,0.796911
4986.775142,0.703157
4987.493925,0.718783
4988.197083,0.703157
4988.915865,0.718783
4989.650274,0.734409
4990.462811,0.812537
4991.197220,0.734409
4992.072260,0.875040
4992.900423,0.828163
4993.681709,0.781286
5042.480817,0.750034
5049.559266,0.828163
5050.340552,0.781286
5051.137464,0.796911
5051.934375,0.796911
5052.825041,0.890666
5062.450481,0.765660
5063.372399,0.921917
5064.122433,0.750034
5064.950596,0.828163
5065.778759,0.828163
5066.669425,0.890666
5067.544465,0.875040
5068.372627,0.828163
5069.153913,0.781286
5069.919573,0.765660
5070.778988,0.859414
5071.575899,0.796911
5072.482191,0.906291
5073.279102,0.796911
5074.154142,0.875040
5074.951054,0.796911
5075.747965,0.796911
5076.529251,0.781286
5077.373039,0.843789
5078.091822,0.718783
5078.826231,0.734409
5079.638768,0.812537
5080.576311,0.937543
5081.513854,0.937543
5082.451397,0.937543
5083.310811,0.859414
5084.185851,0.875040
5085.092143,0.906291
5106.233736,0.796911
5106.999396,0.765660
5107.765056,0.765660
5108.483839,0.718783
5109.249499,0.765660
5109.937030,0.687531
5110.687064,0.750034
5111.390222,0.703157
5112.124630,0.734409
5112.890290,0.765660
5143.407312,0.828163
5171.939868,0.890666
5172.799282,0.859414
5173.643071,0.843789
5174.518111,0.875040
5180.518386,0.671906
5181.315297,0.796911
5182.049706,0.734409
5182.846617,0.796911
5183.659154,0.812537
5184.581072,0.921917
5185.471737,0.890666
5186.284275,0.812537
5187.143689,0.859414
5187.924975,0.781286
5188.721886,0.796911
5189.612552,0.890666
5190.362586,0.750034
5202.191253,0.796911
5203.019416,0.828163
5203.769450,0.750034
5204.597613,0.828163
5205.535156,0.937543
5226.082971,0.890666
5269.209945,0.875040
5270.131863,0.921917
5270.975651,0.843789
5271.803814,0.828163
5272.569474,0.765660
5273.335134,0.765660
5274.116420,0.781286
5274.928957,0.812537
5275.757120,0.828163
5276.600909,0.843789
5277.429072,0.828163
5278.210357,0.781286
5294.882996,0.828163
5295.836164,0.953169
5296.758081,0.921917
5330.181486,0.906291
5331.040901,0.859414
5331.962818,0.921917
5332.790981,0.828163
5348.276065,0.671906
5349.197982,0.921917
5349.932390,0.734409
5421.654423,0.875040
5444.358588,0.890666
5451.390160,0.937543
5452.280825,0.890666
5453.155865,0.875040
5453.984028,0.828163
5454.905946,0.921917
5456.015371,1.109426
5456.968540,0.953169
5457.906083,0.937543
5458.828000,0.921917
5459.734292,0.906291
5460.624957,0.890666
5461.546875,0.921917
5462.468792,0.921917
5463.328206,0.859414
5464.125118,0.796911
5464.953280,0.828163
5465.812695,0.859414
5474.031821,1.046923
5481.438410,0.859414
5482.375953,0.937543
5483.360373,0.984420
5484.251039,0.890666
5493.517088,0.843789
5494.454631,0.937543
5495.267168,0.812537
5496.157834,0.890666
5497.064125,0.906291
5498.032920,0.968794
5499.032965,1.000046
5500.064263,1.031297
5501.033057,0.968794
5502.001851,0.968794
5502.892517,0.890666
5503.705054,0.812537
5504.470714,0.765660
5505.345754,0.875040
5506.189543,0.843789
5507.017706,0.828163
5507.892746,0.875040
5508.845915,0.953169
5509.924089,1.078174
5510.971012,1.046923
5512.002309,1.031297
5512.955478,0.953169
5513.908646,0.953169
5514.768061,0.859414
5531.050056,0.781286
5531.909470,0.859414
5532.893890,0.984420
5533.909562,1.015671
5534.815853,0.906291
5544.535048,0.765660
5545.331960,0.796911
5546.222625,0.890666
5547.191420,0.968794
5548.082086,0.890666
5549.035254,0.953169
5549.972797,0.937543
5550.941592,0.968794
5561.301441,0.968794
5562.301487,1.000046
5571.317524,0.765660
5589.458980,0.843789
5611.069344,0.859414
5612.053764,0.984420
5613.069436,1.015671
5614.100733,1.031297
5615.085153,0.984420
5616.022696,0.937543
5616.850859,0.828163
5617.788402,0.937543
5618.788447,1.000046
5619.850996,1.062549
5620.741662,0.890666
5652.571244,0.718783
5655.946398,0.734409
5656.712058,0.765660
5657.368338,0.656280
5658.118373,0.750034
5658.899658,0.781286
5662.212310,0.671906
5663.009222,0.796911
5663.618624,0.609403
5664.321782,0.703157
5664.978062,0.656280
5665.696845,0.718783
5666.384376,0.687531
5755.669713,0.968794
5756.372870,0.703157
5757.169782,0.796911
5986.211516,0.546900
5986.930299,0.718783
5987.555327,0.625029
6119.592621,0.796911
6168.188596,0.671906
6168.735496,0.546900
6169.423027,0.687531
6367.666477,0.625029
6387.198621,0.656280
6397.964739,0.718783
6398.574142,0.609403
6399.261673,0.687531
6405.683842,0.687531
6406.371373,0.687531
6407.027653,0.656280
6421.590820,0.593777
6422.293977,0.703157
6422.919006,0.625029
6425.716009,0.500023
6426.294160,0.578151
6426.841060,0.546900
6433.091347,0.593777
6433.638247,0.546900
6434.232024,0.593777
6434.857052,0.625029
6447.341999,0.500023
6447.888899,0.546900
6448.435799,0.546900
6448.982699,0.546900
6449.576476,0.593777
6491.812784,0.546900
6492.390936,0.578151
6492.953462,0.562526
6493.562865,0.609403
6494.141016,0.578151
6494.687916,0.546900
6495.250442,0.562526
6495.875470,0.625029
6496.484873,0.609403
6497.016148,0.531274
6497.672428,0.656280
6498.281831,0.609403
6498.906859,0.625029
6499.469385,0.562526
6500.110039,0.640654
6500.750694,0.640654
6501.328845,0.578151
6502.000751,0.671906
6631.053533,0.703157
6631.787942,0.734409
6632.506725,0.718783
6633.241133,0.734409
6670.211576,0.890666
6671.070990,0.859414
6671.914778,0.843789
6672.758567,0.843789
6673.571104,0.812537
6674.383641,0.812537
6675.180553,0.796911
6675.977464,0.796911
6676.743124,0.765660
6677.524410,0.781286
6678.290070,0.765660
6685.649782,0.875040
6686.509197,0.859414
6687.384237,0.875040
6695.728369,0.843789
6696.572157,0.843789
6697.353443,0.781286
6698.150354,0.796911
6698.962892,0.812537
6699.744177,0.781286
6700.541089,0.796911
6701.416129,0.875040
6713.807321,0.859414
6720.760764,0.875040
6721.651430,0.890666
6722.588973,0.937543
6723.464013,0.875040
6724.339053,0.875040
6725.229719,0.890666
6726.136010,0.906291
6727.026676,0.890666
6727.932968,0.906291
6728.854885,0.921917
6729.745551,0.890666
6730.620591,0.875040
6731.480005,0.859414
6732.370671,0.890666
6733.230085,0.859414
6734.105125,0.875040
6734.995791,0.890666
6735.823954,0.828163
6736.652117,0.828163
6737.464654,0.812537
6738.324068,0.859414
6739.152231,0.828163
6740.027271,0.875040
6740.933563,0.906291
6741.839854,0.906291
6742.730520,0.890666
6743.636811,0.906291
6744.527477,0.890666
6745.371266,0.843789
6746.215055,0.843789
6747.058843,0.843789
6747.840129,0.781286
6748.652666,0.812537
6749.480829,0.828163
6750.293366,0.812537
6751.105903,0.812537
6752.012195,0.906291
6752.949738,0.937543
6753.809152,0.859414
6754.668566,0.859414
6755.543607,0.875040
6756.481149,0.937543
6757.387441,0.906291
6758.231230,0.843789
6759.090644,0.859414
6760.012561,0.921917
6760.950104,0.937543
6761.856395,0.906291
6762.762687,0.906291
6773.450676,0.953169
6774.341342,0.890666
6775.232008,0.890666
6776.138299,0.906291
6776.982088,0.843789
6777.857128,0.875040
6778.732168,0.875040
6779.607208,0.875040
6780.497874,0.890666
6781.388540,0.890666
6782.326082,0.937543
6783.201123,0.875040
6784.138665,0.937543
6785.076208,0.937543
6785.998126,0.921917
6786.904417,0.906291
6787.841960,0.937543
6788.748251,0.906291
6789.623291,0.875040
6790.513957,0.890666
6791.420249,0.906291
6792.279663,0.859414
6793.170329,0.890666
6802.889524,0.890666
6803.780190,0.890666
6804.733358,0.953169
6805.733404,1.000046
6806.717824,0.984420
6807.655367,0.937543
6808.592910,0.937543
6809.561704,0.968794
6810.467996,0.906291
6820.249693,0.937543
6821.218488,0.968794
6822.171656,0.953169
6823.093574,0.921917
6824.031116,0.937543
6824.984285,0.953169
6825.906202,0.921917
6836.109794,0.921917
6837.203594,1.093800
6841.703800,0.937543
6842.656969,0.953169
6843.594512,0.937543
6844.532055,0.937543
6845.453972,0.921917
6846.391515,0.937543
6847.313432,0.921917
6848.235349,0.921917
6873.564634,0.906291
6874.486551,0.921917
6875.424094,0.937543
6876.330385,0.906291
6877.252303,0.921917
6878.221097,0.968794
6879.111763,0.890666
6880.049306,0.937543
6881.018100,0.968794
6881.940017,0.921917
6900.175227,0.906291
6901.081518,0.906291
6901.972184,0.890666
6902.862850,0.890666
6903.722264,0.859414
6910.816339,0.921917
6911.769508,0.953169
6912.707051,0.937543
6913.628968,0.921917
6914.535259,0.906291
6915.472802,0.937543
6916.379094,0.906291
6917.316637,0.937543
6918.254179,0.937543
6919.176097,0.921917
6920.082388,0.906291
6920.988680,0.906291
6921.926223,0.937543
6922.848140,0.921917
6923.754431,0.906291
6924.691974,0.937543
6925.645143,0.953169
6926.535809,0.890666
6927.473351,0.937543
6928.426520,0.953169
6929.364063,0.937543
6930.254729,0.890666
6931.145395,0.890666
6932.082937,0.937543
6933.004855,0.921917
6933.942398,0.937543
6934.895566,0.953169
6935.879986,0.984420
6936.817529,0.937543
6937.770698,0.953169
6938.676989,0.906291
6939.552029,0.875040
6940.520824,0.968794
6941.473992,0.953169
6942.411535,0.937543
6943.349078,0.937543
6944.286621,0.937543
6945.208538,0.921917
6946.114830,0.906291
6947.052373,0.937543
6947.989916,0.937543
6948.911833,0.921917
6949.849376,0.937543
6950.740041,0.890666
6961.584288,0.937543
6962.521831,0.937543
6963.428122,0.906291
6964.381291,0.953169
6965.318834,0.937543
6966.272002,0.953169
6967.209545,0.937543
6968.147088,0.937543
6968.990877,0.843789
6979.882000,1.062549
6980.866421,0.984420
6981.835215,0.968794
6982.757132,0.921917
6983.663424,0.906291
6984.569715,0.906291
6985.476007,0.906291
6986.397924,0.921917
6987.335467,0.937543
6988.273010,0.937543
6989.241804,0.968794
6990.132470,0.890666
6991.023135,0.890666
7002.664293,0.890666
7003.554959,0.890666
7004.445625,0.890666
7005.305039,0.859414
7006.164454,0.859414
7007.008242,0.843789
7007.883282,0.875040
7008.742697,0.859414
7009.602111,0.859414
7010.445899,0.843789
7011.352191,0.906291
7012.227231,0.875040
7013.117897,0.890666
7014.055440,0.937543
7015.008608,0.953169
7015.977403,0.968794
7016.961823,0.984420
7017.993120,1.031297
7018.993166,1.000046
7019.961960,0.968794
7055.526088,0.968794
7056.510508,0.984420
7057.479302,0.968794
7058.432471,0.953169
7059.385640,0.953169
7060.385685,1.000046
7083.339861,0.859414
7084.183650,0.843789
7085.121193,0.937543
7163.656038,0.890666
7195.501245,0.984420
7260.004198,1.031297
7261.019869,1.015671
7262.019915,1.000046
7272.114127,0.843789
7273.067296,0.953169
7274.082967,1.015671
7275.129890,1.046923
7276.083059,0.953169
7277.067479,0.984420
7278.067525,1.000046
7279.020693,0.953169
7287.755468,0.703157
7288.443000,0.687531
7293.036960,0.937543
7294.021380,0.984420
7294.927671,0.906291
7295.912091,0.984420
7296.818383,0.906291
7297.834054,1.015671
7298.740346,0.906291
7299.709140,0.968794
7300.662309,0.953169
7301.693606,1.031297
7302.678026,0.984420
7303.631195,0.953169
7304.615615,0.984420
7305.615661,1.000046
7306.584455,0.968794
7307.521998,0.937543
7308.506418,0.984420
7309.506464,1.000046
7310.475258,0.968794
7346.117515,0.890666
7347.023806,0.906291
7347.992600,0.968794
7348.961395,0.968794
7364.462104,0.812537
7365.305893,0.843789
7366.196559,0.890666
7367.087224,0.890666
7367.962265,0.875040
7368.837305,0.875040
7369.727970,0.890666
7370.603010,0.875040
7371.446799,0.843789
7372.384342,0.937543
7373.321885,0.937543
7374.228176,0.906291
7375.134468,0.906291
7376.087636,0.953169
7376.993928,0.906291
7377.837717,0.843789
7378.634628,0.796911
7379.415914,0.781286
7380.228451,0.812537
7381.025362,0.796911
7381.884777,0.859414
7382.775443,0.890666
7383.634857,0.859414
7408.589124,0.937543
7409.448539,0.859414
7410.339204,0.890666
7411.261122,0.921917
7412.167413,0.906291
7413.058079,0.890666
7413.933119,0.875040
7414.792533,0.859414
7415.651947,0.859414
7416.511362,0.859414
7417.370776,0.859414
7418.230191,0.859414
7419.105231,0.875040
7419.949019,0.843789
7420.824059,0.875040
7421.683474,0.859414
7422.542888,0.859414
7423.386677,0.843789
7424.230465,0.843789
7425.105505,0.875040
7425.949294,0.843789
7426.839960,0.890666
7427.683748,0.843789
7428.574414,0.890666
7429.371325,0.796911
7430.230740,0.859414
7431.090154,0.859414
7431.965194,0.875040
7432.824609,0.859414
7433.684023,0.859414
7434.559063,0.875040
7435.418477,0.859414
7436.262266,0.843789
7444.887661,0.937543
7445.809578,0.921917
7446.778372,0.968794
7447.700289,0.921917
7448.590955,0.890666
7449.481621,0.890666
7450.341035,0.859414
7451.247327,0.906291
7452.106741,0.859414
7453.013033,0.906291
7453.872447,0.859414
7454.794364,0.921917
7455.700656,0.906291
7456.606947,0.906291
7457.497613,0.890666
7458.419530,0.921917
7459.341447,0.921917
7460.247739,0.906291
7461.169656,0.921917
7462.091573,0.921917
7504.734150,1.000046
7505.718570,0.984420
7506.640487,0.921917
7507.578030,0.937543
7508.515573,0.937543
7509.437490,0.921917
7510.343782,0.906291
7523.625640,0.859414
7524.563183,0.937543
7525.469474,0.906291
7526.391392,0.921917
7527.266432,0.875040
7528.172723,0.906291
7529.094640,0.921917
7530.032183,0.937543
7530.954100,0.921917
7531.876018,0.921917
7532.782309,0.906291
7533.672975,0.890666
7534.579266,0.906291
7535.501184,0.921917
7536.391849,0.890666
7537.345018,0.953169
7538.282561,0.937543
7539.251355,0.968794
7540.204524,0.953169
7541.173318,0.968794
7542.110861,0.937543
7543.064030,0.953169
7544.001573,0.937543
7558.127219,0.937543
7559.142891,1.015671
7559.924177,0.781286
7560.861720,0.937543
7561.814888,0.953169
7562.752431,0.937543
7563.689974,0.937543
7564.611891,0.921917
7565.565060,0.953169
7566.518229,0.953169
7567.440146,0.921917
7568.330812,0.890666
7569.252729,0.921917
7570.159020,0.906291
7571.065312,0.906291
7571.987229,0.921917
7572.924772,0.937543
7573.831063,0.906291
7574.784232,0.953169
7575.737401,0.953169
7576.721821,0.984420
7625.630309,0.921917
7658.584943,0.875040
7667.554103,0.875040
7668.507272,0.953169
7669.382312,0.875040
7678.492104,0.906291
7679.398395,0.906291
7680.289061,0.890666
7681.226604,0.937543
7748.448431,0.906291
7749.370348,0.921917
7750.292265,0.921917
7751.214183,0.921917
7752.120474,0.906291
7753.042391,0.921917
7753.948683,0.906291
7754.901851,0.953169
7755.839394,0.937543
7756.792563,0.953169
7757.761357,0.968794
7758.714526,0.953169
7759.652069,0.937543
7760.620863,0.968794
7761.574032,0.953169
7762.542826,0.968794
7763.511621,0.968794
7764.496041,0.984420
7765.449209,0.953169
7766.418004,0.968794
7767.355546,0.937543
7768.277464,0.921917
7769.183755,0.906291
7770.058795,0.875040
7770.886958,0.828163
7771.621367,0.734409
7772.355775,0.734409
7773.043307,0.687531
7773.762090,0.718783
7774.527750,0.765660
7775.387164,0.859414
7776.309081,0.921917
7777.184121,0.875040
7846.843560,0.843789
7847.734226,0.890666
7874.157310,0.843789
7875.079227,0.921917
7875.907390,0.828163
7876.751179,0.843789
7877.641845,0.890666
7878.485633,0.843789
7879.329422,0.843789
7880.110708,0.781286
7880.923245,0.812537
7913.159096,0.781286
7913.909130,0.750034
7914.643538,0.734409
7915.362321,0.718783
7916.174859,0.812537
7917.128027,0.953169
7918.159324,1.031297
7919.174996,1.015671
7920.050036,0.875040
7920.846947,0.796911
7921.643859,0.796911
7922.518899,0.875040
7923.534570,1.015671
7924.487739,0.953169
7925.394031,0.906291
7926.409702,1.015671
7927.315994,0.906291
7928.175408,0.859414
7929.097325,0.921917
7930.159874,1.062549
7931.253674,1.093800
7932.347474,1.093800
7933.378771,1.031297
7934.300688,0.921917
7935.222605,0.921917
7936.238277,1.015671
7937.410206,1.171929
7938.566509,1.156303
7939.597806,1.031297
7940.597852,1.000046
7941.660400,1.062549
7942.816703,1.156303
7944.051135,1.234432
7945.082432,1.031297
7946.019975,0.937543
7947.020020,1.000046
7948.129446,1.109426
7949.379503,1.250057
7950.473304,1.093800
7951.504601,1.031297
7952.629652,1.125051
7954.020341,1.390689
7955.254772,1.234432
7956.301695,1.046923
7961.551936,1.078174
7962.676987,1.125051
7963.942670,1.265683
7965.161476,1.218806
7966.208399,1.046923
7967.208445,1.000046
7968.364748,1.156303
7969.646056,1.281309
7970.849236,1.203180
7971.896159,1.046923
7973.005585,1.109426
7974.318145,1.312560
7975.536951,1.218806
7976.568248,1.031297
7977.537042,0.968794
7978.583965,1.046923
7979.771520,1.187554
7981.005951,1.234432
7982.131003,1.125051
7983.177926,1.046923
7984.302977,1.125051
7985.490531,1.187554
7986.693712,1.203180
7987.771886,1.078174
7988.850060,1.078174
7989.975112,1.125051
7991.115789,1.140677
7992.209589,1.093800
7993.256512,1.046923
7994.225306,0.968794
7995.194101,0.968794
7996.241024,1.046923
7997.334824,1.093800
7998.506752,1.171929
7999.725558,1.218806
8000.975615,1.250057
8002.100667,1.125051
8003.100713,1.000046
8004.007004,0.906291
8004.928921,0.921917
8005.928967,1.000046
8007.085270,1.156303
8008.350953,1.265683
8009.538507,1.187554
8010.726062,1.187554
8011.804236,1.078174
8012.788656,0.984420
8013.710573,0.921917
