1502784968.00
64.000000
-0.00
-0.00
-0.00
-0.00
-0.00
-0.00
-0.00
-0.00
-0.00
-0.00
0.00
0.01
0.01
-0.00
-0.03
-0.05
-0.05
0.00
0.13
0.36
0.66
1.01
1.37
1.72
2.06
2.40
2.79
3.24
3.80
4.42
5.06
5.66
6.20
6.68
7.15
7.68
8.31
9.14
10.09
11.04
11.88
12.56
13.14
13.76
14.65
15.96
17.91
20.32
22.90
25.38
27.58
29.57
31.68
34.32
37.81
42.54
48.15
54.10
59.83
64.97
69.58
74.14
79.34
85.71
93.76
103.00
112.62
121.73
129.77
136.75
143.30
150.75
157.77
166.64
177.95
191.79
206.97
220.57
228.25
225.36
208.53
176.87
132.76
80.05
23.07
-34.94
-92.44
-149.16
-205.23
-260.37
-313.74
-363.87
-409.83
-450.91
-486.50
-515.74
-537.23
-549.22
-549.96
-538.37
-514.21
-478.67
-433.88
-382.45
-327.02
-269.84
-212.63
-156.66
-102.95
-52.37
-5.90
35.58
71.43
101.35
125.50
144.38
158.69
169.15
176.37
180.75
182.57
182.07
179.51
175.23
169.65
163.18
156.15
148.81
141.30
133.69
126.02
118.33
110.69
103.16
95.80
88.68
81.83
75.25
68.95
62.95
57.25
51.86
46.78
42.03
37.59
33.45
29.61
26.07
22.81
19.83
17.11
14.67
12.48
10.54
8.83
7.35
6.07
4.97
4.05
3.27
2.62
2.09
1.65
1.30
1.01
0.79
0.61
0.48
0.37
0.30
0.24
0.21
0.19
0.18
0.19
0.20
0.22
0.25
0.28
0.32
0.36
0.40
0.44
0.49
0.54
0.58
0.63
0.68
0.74
0.81
0.88
0.95
1.04
1.13
1.24
1.36
1.49
1.64
1.80
1.98
2.19
2.41
2.65
2.91
3.20
3.52
3.86
4.24
4.64
5.07
5.54
6.04
6.59
7.17
7.80
8.46
9.18
9.93
10.73
11.58
12.46
13.40
14.40
15.46
16.57
17.72
18.91
20.05
21.12
22.00
22.60
22.80
22.47
21.52
19.87
17.51
14.44
10.78
6.60
2.10
-2.53
-7.06
-11.32
-15.11
-18.29
-20.79
-22.58
-23.68
-24.14
-24.10
-23.68
-23.01
-22.23
-21.43
-20.68
-19.99
-19.35
-18.72
-18.06
-17.31
-16.41
-15.24
-13.71
-11.71
-9.12
-5.82
-1.67
3.26
8.94
15.31
22.27
29.69
37.41
45.25
53.09
60.83
68.15
74.84
80.84
86.17
90.93
95.27
99.38
103.52
108.00
112.51
116.92
121.12
125.04
128.62
131.86
134.85
137.80
141.06
144.28
147.37
150.25
152.79
154.75
155.63
154.54
149.84
144.43
139.01
134.03
129.74
126.35
123.98
122.68
122.47
123.38
125.48
128.14
130.93
133.52
135.64
137.07
137.64
137.25
135.89
133.75
130.57
126.36
121.26
115.45
108.50
100.09
90.26
79.35
67.80
55.60
42.95
29.97
16.94
3.58
-10.35
-24.79
-39.44
-53.88
-67.86
-80.76
-91.99
-100.82
-108.12
-114.71
-120.94
-126.74
-132.08
-137.31
-142.50
-147.91
-153.45
-162.72
-178.07
-199.10
-223.23
-248.04
-272.91
-297.92
-324.55
-352.87
-388.45
-432.04
-477.42
-514.52
-535.96
-541.07
-533.20
-520.11
-507.55
-510.22
-535.49
-579.58
-631.01
-679.11
-719.28
-749.40
-772.95
-791.94
-822.72
-874.66
-943.82
-1015.66
-1075.26
-1114.76
-1130.00
-1125.70
-1006.88
-736.04
-351.90
54.16
404.79
669.56
834.65
936.79
998.79
1033.34
1031.55
987.31
906.02
802.11
693.06
591.84
508.39
442.09
391.10
342.62
290.97
241.59
206.32
193.06
199.47
217.86
235.07
243.43
233.89
205.14
163.72
119.87
81.66
52.07
32.19
17.97
9.48
2.91
-5.06
-15.31
-26.81
-38.00
-47.77
-54.45
-57.54
-56.08
-51.35
-45.32
-39.38
-34.74
-32.40
-32.93
-35.84
-40.02
-43.22
-42.76
-40.59
-37.28
-33.64
-30.51
-28.50
-27.74
-27.92
-28.35
-28.63
-28.75
-28.38
-27.59
-26.46
-24.59
-21.41
-16.20
-8.35
2.15
14.99
30.36
48.64
70.04
93.92
118.23
139.63
154.59
160.99
159.32
152.89
146.18
142.79
144.06
148.95
155.17
160.73
164.96
168.40
171.97
175.75
178.40
177.93
172.66
162.29
148.07
132.22
117.06
103.73
91.87
79.85
65.88
49.06
29.96
10.45
-7.06
-20.63
-29.28
-32.76
-31.19
-24.69
-13.43
1.77
19.08
35.85
49.28
57.37
59.68
57.24
51.97
45.64
39.30
33.23
27.27
21.36
15.65
10.53
6.24
2.79
-0.02
-2.50
-4.80
-6.90
-8.54
-9.31
-8.85
-7.00
-4.03
-0.54
2.69
5.02
6.24
6.56
6.39
6.05
5.56
4.78
3.65
2.53
2.09
3.09
5.87
10.21
15.53
21.24
27.14
33.44
40.49
48.42
56.79
64.73
71.31
75.86
78.13
78.22
76.30
72.50
66.96
60.02
52.40
45.26
39.87
37.26
37.85
41.26
46.42
51.84
56.11
58.20
57.76
54.94
50.28
44.33
37.50
29.99
21.84
13.19
4.38
-4.04
-11.48
-17.42
-21.50
-23.59
-23.68
-22.01
-18.91
-14.97
-10.93
-7.58
-5.63
-5.47
-7.13
-10.24
-14.25
-18.50
-22.49
-25.91
-28.61
-30.58
-31.97
-33.01
-33.97
-35.14
-36.65
-38.50
-40.56
-42.57
-44.31
-45.65
-46.60
-47.31
-48.02
-49.01
-50.57
-52.80
-55.54
-58.23
-59.99
-59.75
-56.68
-50.45
-41.41
-30.48
-18.85
-7.64
2.32
10.52
16.74
20.86
22.88
22.93
21.30
18.48
15.02
11.41
8.03
5.11
2.79
1.24
0.53
0.72
1.76
3.50
5.73
8.19
10.54
12.43
13.50
13.49
12.28
9.98
6.84
3.21
-0.59
-4.35
-7.99
-11.47
-14.80
-17.96
-20.98
-23.85
-26.63
-29.30
-31.82
-34.00
-35.69
-36.81
-37.49
-38.04
-38.90
-40.31
-42.10
-43.68
-44.06
-42.31
-37.88
-30.78
-21.65
-11.51
-1.44
7.68
15.20
20.74
24.08
25.06
23.68
20.12
14.79
8.29
1.29
-5.64
-12.08
-17.80
-22.66
-26.60
-29.59
-31.64
-32.89
-33.53
-33.79
-33.77
-33.40
-32.52
-30.97
-28.79
-26.26
-23.80
-21.80
-20.44
-19.58
-18.84
-17.83
-16.24
-13.98
-11.20
-8.09
-4.87
-1.77
0.95
3.00
4.15
4.50
4.61
5.36
7.79
12.58
19.76
28.65
38.12
46.93
54.16
59.31
62.32
63.40
62.87
61.04
58.19
54.53
50.19
45.37
40.30
35.31
30.79
27.07
24.30
22.48
21.47
21.06
21.10
21.47
22.07
22.66
22.91
22.48
21.06
18.56
15.15
11.20
7.12
3.25
-0.25
-3.46
-6.53
-9.65
-12.94
-16.45
-20.22
-24.30
-28.77
-33.59
-38.44
-42.60
-45.13
-45.07
-41.81
-35.38
-26.51
-16.41
-6.44
2.24
8.95
13.51
16.13
17.21
17.14
16.18
14.43
11.91
8.67
4.93
1.08
-2.38
-4.97
-6.45
-6.77
-6.14
-4.88
-3.31
-1.72
-0.32
0.72
1.28
1.32
0.85
-0.06
-1.30
-2.72
-4.24
-5.87
-7.64
-9.62
-11.86
-14.32
-16.92
-19.58
-22.27
-25.08
-28.22
-31.85
-35.89
-39.92
-43.15
-44.55
-43.20
-38.59
-30.87
-20.88
-9.94
0.52
9.33
15.87
20.04
22.13
22.59
21.85
20.23
18.04
15.57
13.18
11.25
10.00
9.52
9.78
10.66
12.07
13.89
15.94
17.98
19.71
20.89
21.41
21.27
20.61
19.57
18.22
16.52
14.37
11.70
8.49
4.87
1.09
-2.58
-5.87
-8.65
-10.91
-12.78
-14.52
-16.44
-18.78
-21.69
-25.00
-28.24
-30.61
-31.27
-29.49
-25.07
-18.30
-9.97
-1.12
7.27
14.42
19.80
23.14
24.38
23.66
21.36
18.00
14.10
10.07
6.18
2.60
-0.45
-2.66
-3.68
-3.23
-1.31
1.70
5.14
8.34
10.74
12.08
12.37
11.75
10.45
8.71
6.68
4.51
2.34
0.15
-2.14
-4.63
-7.45
-10.55
-13.75
-16.82
-19.52
-21.80
-23.86
-26.01
-28.59
-31.68
-35.00
-37.84
-39.22
-38.14
-33.95
-26.64
-16.90
-5.92
4.86
14.27
21.61
26.68
29.66
30.85
30.44
28.56
25.35
21.09
16.34
11.79
8.10
5.75
4.90
5.36
6.77
8.66
10.60
12.29
13.59
14.46
14.93
14.94
14.34
12.95
10.63
7.34
3.27
-1.26
-5.90
-10.32
-14.34
-17.91
-21.05
-23.84
-26.44
-29.08
-32.06
-35.58
-39.53
-43.35
-46.05
-46.52
-43.92
-38.03
-29.35
-19.02
-8.33
1.61
10.13
16.96
22.08
25.58
27.49
27.91
27.00
24.98
22.16
18.89
15.53
12.47
10.04
8.48
7.96
8.49
9.99
12.22
14.82
17.31
19.13
19.75
18.89
16.61
13.24
9.33
5.35
1.55
-2.08
-5.70
-9.47
-13.38
-17.23
-20.72
-23.65
-25.98
-27.88
-29.63
-31.60
-34.10
-37.37
-41.36
-45.71
-49.59
-51.87
-51.31
-46.99
-38.68
-26.91
-12.97
1.49
14.84
25.84
33.84
38.71
40.80
40.65
38.91
36.16
32.91
29.61
26.64
24.31
22.79
22.11
22.15
22.74
23.70
24.96
26.48
28.24
30.04
31.52
32.21
31.68
29.69
26.32
21.94
17.06
12.25
7.90
4.15
0.88
-2.22
-5.45
-8.99
-12.81
-16.71
-20.34
-23.43
-25.81
-27.56
-28.99
-30.55
-32.74
-35.93
-40.17
-45.00
-49.46
-52.13
-51.56
-46.74
-37.45
-24.52
-9.58
5.33
18.36
28.24
34.53
37.45
37.63
35.76
32.47
28.33
23.84
19.47
15.65
12.63
10.56
9.48
9.40
10.36
12.33
15.13
18.38
21.55
24.07
25.52
25.71
24.73
22.78
20.09
16.85
13.21
9.41
5.74
2.51
-0.06
-1.95
-3.44
-4.98
-6.95
-9.60
-12.86
-16.38
-19.74
-22.59
-24.84
-26.64
-28.37
-30.40
-33.05
-36.50
-40.67
-45.22
-49.45
-52.38
-52.90
-49.99
-43.12
-32.43
-18.94
-4.17
10.09
22.36
31.68
37.72
40.66
40.87
38.84
35.03
29.96
24.31
18.83
14.29
11.26
9.99
10.41
12.18
14.85
17.99
21.19
24.11
26.47
28.04
28.60
28.05
26.35
23.50
19.64
15.00
9.94
4.92
0.32
-3.67
-7.20
-10.52
-13.96
-17.61
-21.31
-24.70
-27.48
-29.51
-31.00
-32.39
-34.21
-36.89
-40.59
-45.13
-49.91
-53.91
-55.85
-54.44
-48.88
-39.15
-26.12
-11.41
3.14
15.92
25.93
32.83
36.79
38.15
37.34
34.74
30.78
26.03
21.17
16.88
13.70
11.95
11.62
12.47
14.17
16.35
18.75
21.14
23.31
25.01
25.94
25.84
24.61
22.31
19.15
15.45
11.45
7.32
3.21
-0.70
-4.27
-7.36
-10.09
-12.67
-15.47
-18.77
-22.57
-26.57
-30.34
-33.45
-35.71
-37.26
-38.48
-39.88
-42.00
-45.21
-49.57
-54.67
-59.54
-62.69
-62.55
-57.91
-48.40
-34.72
-18.50
-1.79
13.44
25.77
34.52
39.63
41.51
40.82
38.31
34.73
30.73
26.88
23.55
20.96
19.12
18.02
17.62
17.93
19.00
20.79
23.08
25.52
27.64
29.00
29.33
28.51
26.60
23.72
20.12
16.06
11.89
7.94
4.49
1.61
-0.75
-2.82
-4.79
-6.80
-8.87
-11.04
-13.25
-15.45
-17.52
-19.30
-20.56
-21.19
-21.23
-20.93
-20.74
-21.09
-22.40
-24.93
-28.77
-33.70
-39.22
-44.40
-47.98
-48.69
-45.50
-38.10
-27.05
-13.67
0.30
13.14
23.57
30.93
35.15
36.65
36.03
33.98
31.11
27.90
24.69
21.76
19.33
17.62
16.85
17.09
18.28
20.17
22.44
24.78
26.90
28.57
29.57
29.76
29.00
27.33
24.94
22.11
19.17
16.30
13.52
10.71
7.74
4.58
1.33
-1.82
-4.65
-7.02
-8.88
-10.32
-11.53
-12.73
-14.15
-15.92
-18.04
-20.35
-22.61
-24.53
-25.98
-27.06
-28.12
-29.68
-32.17
-35.77
-40.16
-44.45
-47.28
-47.25
-43.30
-35.16
-23.45
-9.60
4.55
17.28
27.37
34.21
37.88
38.83
37.69
35.06
31.48
27.37
23.12
19.10
15.72
13.33
12.19
12.41
13.90
16.36
19.36
22.45
25.26
27.47
28.92
29.49
29.13
27.83
25.62
22.63
19.01
15.00
10.83
6.67
2.67
-1.04
-4.33
-7.04
-9.11
-10.60
-11.69
-12.71
-13.95
-15.57
-17.49
-19.49
-21.28
-22.70
-23.87
-25.13
-26.97
-29.83
-33.85
-38.69
-43.47
-46.92
-47.72
-44.93
-38.33
-28.50
-16.66
-4.29
7.24
16.99
24.40
29.27
31.58
31.47
29.28
25.51
20.86
16.02
11.61
8.09
5.72
4.63
4.81
6.12
8.30
11.06
14.04
16.95
19.58
21.71
23.07
23.32
22.17
19.45
15.29
10.17
4.83
0.04
-3.67
-6.18
-7.85
-9.30
-11.16
-13.74
-16.97
-20.42
-23.57
-26.10
-28.05
-29.79
-31.85
-34.72
-38.57
-43.20
-47.95
-51.85
-53.73
-52.51
-47.57
-38.95
-27.45
-14.52
-1.83
9.16
17.48
22.84
25.46
25.82
24.48
21.90
18.52
14.76
11.08
7.97
5.86
4.98
5.35
6.83
9.17
12.08
15.26
18.44
21.30
23.56
24.92
25.18
24.20
22.02
18.74
14.64
10.10
5.54
1.38
-2.07
-4.74
-6.77
-8.48
-10.19
-12.15
-14.41
-16.89
-19.39
-21.73
-23.81
-25.65
-27.40
-29.33
-31.81
-35.19
-39.59
-44.69
-49.62
-53.02
-53.44
-49.81
-41.83
-30.18
-16.31
-2.03
11.02
21.65
29.33
34.01
35.98
35.71
33.74
30.67
27.13
23.68
20.77
18.73
17.75
17.85
18.94
20.74
22.97
25.28
27.39
29.12
30.32
30.88
30.74
29.82
28.12
25.76
22.92
19.85
16.73
13.62
10.49
7.29
4.02
0.73
-2.43
-5.31
-7.82
-9.95
-11.79
-13.54
-15.40
-17.52
-19.96
-22.60
-25.22
-27.62
-29.71
-31.59
-33.57
-36.00
-39.21
-43.23
-47.71
-51.84
-54.49
-54.46
-50.90
-43.59
-33.04
-20.44
-7.29
4.93
15.07
22.48
26.94
28.65
27.98
25.50
21.88
17.84
14.04
11.02
9.09
8.36
8.68
9.82
11.49
13.47
15.62
17.78
19.76
21.37
22.34
22.51
21.78
20.22
17.97
15.23
12.17
8.92
5.61
2.38
-0.61
-3.21
-5.38
-7.16
-8.71
-10.22
-11.84
-13.63
-15.49
-17.17
-18.30
-18.52
-17.56
-15.43
-12.43
-9.19
-6.51
-5.23
-5.95
-8.92
-13.80
-19.66
-25.07
-28.37
-28.15
-23.69
-15.25
-4.02
8.27
19.86
29.46
36.54
41.23
44.00
45.32
45.41
44.21
41.57
37.49
32.41
27.09
22.48
19.35
18.07
18.42
19.80
21.42
22.50
22.55
21.44
19.41
16.96
14.73
13.21
12.52
12.27
11.67
9.85
6.22
0.82
-5.63
-11.96
-17.01
-20.04
-21.20
-21.44
-22.15
-24.48
-28.65
-33.77
-38.28
-40.68
-40.43
-38.21
-35.55
-33.98
-34.25
-35.89
-37.38
-36.90
-32.94
-24.85
-12.93
1.76
17.71
33.37
47.46
59.05
67.52
72.49
73.72
71.15
65.04
56.10
45.37
33.95
22.70
12.07
2.19
-6.96
-15.25
-22.37
-27.87
-31.37
-32.72
-32.03
-29.73
-26.49
-23.23
-20.89
-20.16
-21.23
-23.63
-26.38
-28.41
-28.94
-27.84
-25.67
-23.27
-21.41
-20.46
-20.38
-20.88
-21.68
-22.61
-23.68
-24.94
-26.47
-28.38
-30.84
-34.03
-37.89
-41.96
-45.35
-46.80
-45.19
-39.87
-30.97
-19.40
-6.55
6.11
17.37
26.48
33.10
37.16
38.80
38.32
36.13
32.78
28.88
25.01
21.65
19.06
17.36
16.56
16.62
17.46
18.95
20.88
22.94
24.91
26.57
27.78
28.40
28.26
27.15
24.93
21.57
17.31
12.59
8.00
4.09
1.16
-0.82
-2.18
-3.43
-5.07
-7.43
-10.47
-13.92
-17.38
-20.51
-23.17
-25.47
-27.66
-30.11
-33.09
-36.72
-40.81
-44.84
-47.92
-49.03
-47.20
-41.87
-33.16
-21.80
-9.03
3.72
15.18
24.45
31.08
35.00
36.47
35.91
33.81
30.66
26.98
23.22
19.82
17.17
15.50
14.92
15.34
16.53
18.22
20.14
22.13
24.05
25.79
27.16
27.89
27.73
26.52
24.29
21.27
17.88
14.45
11.22
8.20
5.18
1.88
-1.94
-6.37
-11.34
-16.60
-21.82
-26.70
-30.95
-34.44
-37.12
-39.08
-40.57
-41.99
-43.70
-45.87
-48.30
-50.22
-50.53
-47.98
-41.74
-31.65
-18.45
-3.47
11.71
25.68
37.50
46.74
53.33
57.38
59.12
58.79
56.73
53.34
49.04
44.28
39.49
35.10
31.54
29.18
28.29
28.99
31.14
34.36
38.07
41.62
44.41
46.02
46.27
45.22
43.11
40.25
36.85
33.09
29.01
24.62
19.93
14.94
9.70
4.31
-1.09
-6.32
-11.13
-15.25
-18.51
-20.83
-22.33
-23.31
-24.23
-25.65
-28.21
-32.36
-38.23
-45.39
-52.72
-58.62
-61.42
-59.90
-53.74
-43.60
-30.92
-17.45
-4.80
5.93
14.08
19.39
21.78
21.37
18.46
13.53
7.29
0.51
-6.06
-11.87
-16.59
-20.03
-22.08
-22.68
-21.77
-19.46
-15.97
-11.71
-7.26
-3.23
-0.15
1.64
2.01
1.08
-0.86
-3.39
-6.13
-8.75
-11.08
-13.10
-14.87
-16.56
-18.33
-20.29
-22.47
-24.83
-27.31
-29.86
-32.51
-35.45
-38.96
-43.26
-48.35
-53.72
-58.42
-61.13
-60.57
-55.93
-47.17
-35.11
-21.20
-7.06
5.89
16.69
24.85
30.30
33.15
33.61
32.06
28.93
24.80
20.31
16.16
12.94
11.07
10.78
12.03
14.61
18.10
22.09
26.10
29.81
32.96
35.35
36.85
37.34
36.75
35.04
32.27
28.57
24.19
19.45
14.69
10.24
6.24
2.76
-0.28
-2.99
-5.46
-7.76
-9.89
-11.88
-13.73
-15.48
-17.13
-18.73
-20.31
-21.99
-23.97
-26.50
-29.77
-33.64
-37.50
-40.29
-40.70
-37.67
-30.79
-20.53
-8.17
4.62
16.28
25.66
32.24
36.00
37.25
36.40
33.94
30.34
26.10
21.72
17.65
14.27
11.90
10.72
10.79
12.03
14.23
17.09
20.27
23.44
26.30
28.56
29.99
30.45
29.92
28.50
26.39
23.76
20.82
17.72
14.62
11.69
9.06
6.80
4.88
3.16
1.45
-0.45
-2.71
-5.39
-8.41
-11.60
-14.77
-17.74
-20.43
-22.89
-25.32
-28.01
-31.30
-35.42
-40.28
-45.28
-49.37
-51.22
-49.64
-44.02
-34.68
-22.72
-9.74
2.66
13.33
21.69
27.62
31.24
32.77
32.30
30.03
26.31
21.66
16.81
12.44
9.10
7.04
6.28
6.68
8.07
10.29
13.18
16.49
19.87
22.85
24.96
25.84
25.32
23.39
20.29
16.33
11.97
7.67
3.81
0.58
-2.08
-4.48
-7.02
-10.05
-13.69
-17.80
-22.05
-26.07
-29.57
-32.53
-35.14
-37.72
-40.57
-43.84
-47.28
-50.24
-51.76
-50.83
-46.67
-39.08
-28.56
-16.25
-3.66
7.79
17.00
23.48
27.28
28.80
28.53
26.92
24.28
20.89
17.10
13.38
10.28
8.28
7.65
8.43
10.47
13.45
17.01
20.75
24.26
27.15
29.14
30.03
29.78
28.47
26.25
23.24
19.64
15.65
11.58
7.79
4.54
1.94
-0.13
-2.00
-4.09
-6.71
-9.93
-13.59
-17.35
-20.87
-23.90
-26.36
-28.32
-29.97
-31.63
-33.66
-36.48
-40.31
-45.01
-49.86
-53.61
-54.82
-52.27
-45.46
-34.82
-21.66
-7.72
5.32
16.16
24.10
28.96
30.99
30.63
28.51
25.27
21.61
18.16
15.36
13.50
12.63
12.63
13.27
14.35
15.70
17.29
19.18
21.40
23.90
26.40
28.44
29.50
29.24
27.65
25.09
22.06
19.06
16.39
14.10
12.05
10.03
7.92
5.69
3.39
1.09
-1.13
-3.21
-5.10
-6.84
-8.53
-10.34
-12.37
-14.66
-17.05
-19.31
-21.26
-22.94
-24.55
-26.51
-29.22
-32.86
-37.24
-41.70
-45.25
-46.70
-45.07
-39.82
-31.12
-19.82
-7.25
5.12
16.07
24.76
30.91
34.56
36.03
35.69
33.93
31.14
27.69
23.96
20.30
17.07
14.62
13.21
12.95
13.83
15.65
18.09
20.74
23.18
25.01
25.95
25.81
24.65
22.64
20.07
17.27
14.44
11.64
8.82
5.91
2.82
-0.39
-3.63
-6.72
-9.52
-11.93
-13.92
-15.57
-17.00
-18.38
-19.82
-21.35
-22.94
-24.47
-25.86
-27.07
-28.21
-29.50
-31.27
-33.82
-37.31
-41.61
-46.19
-50.14
-52.32
-51.69
-47.67
-40.34
-30.46
-19.29
-8.15
1.85
10.01
16.01
19.81
21.54
21.37
19.46
16.05
11.47
6.24
0.94
-3.80
-7.40
-9.52
-10.10
-9.38
-7.84
-5.96
-4.09
-2.43
-1.05
-0.02
0.45
0.05
-1.53
-4.47
-8.73
-14.03
-19.91
-25.87
-31.45
-36.34
-40.35
-43.40
-45.46
-46.60
-46.97
-46.71
-46.04
-45.06
-43.95
-42.81
-41.86
-41.39
-41.73
-43.09
-45.34
-47.91
-49.75
-49.57
-46.08
-38.45
-26.56
-11.15
6.31
23.86
39.53
51.74
59.64
63.18
63.06
60.42
56.49
52.42
49.13
47.22
47.07
48.81
52.33
57.33
63.39
70.08
77.09
84.19
91.20
97.96
104.21
109.65
113.97
116.91
118.27
118.01
116.14
112.76
108.09
102.38
95.90
88.84
81.33
73.43
65.18
56.73
48.37
40.40
33.12
26.62
20.87
15.73
11.08
6.92
3.31
0.34
-2.02
-3.85
-5.32
-6.40
-6.85
-6.09
-3.35
2.01
10.21
20.81
32.67
44.17
53.65
59.80
61.98
60.29
55.40
48.25
39.73
30.52
20.95
11.14
1.11
-9.01
-18.85
-27.78
-34.90
-39.35
-40.52
-38.29
-33.15
-26.15
-18.65
-12.01
-7.35
-5.30
-6.03
-9.21
-14.19
-20.15
-26.18
-31.58
-35.85
-38.84
-40.66
-41.67
-42.31
-43.06
-44.36
-46.44
-49.35
-52.80
-56.31
-59.30
-61.26
-62.03
-61.75
-61.00
-60.50
-60.97
-62.88
-66.25
-70.56
-74.79
-77.53
-77.44
-73.56
-65.66
-54.39
-41.09
-27.46
-15.10
-5.27
1.30
4.37
4.10
0.98
-4.25
-10.67
-17.25
-23.07
-27.57
-30.55
-32.17
-32.79
-32.74
-32.08
-30.76
-28.57
-25.48
-21.72
-17.79
-14.39
-12.17
-11.67
-13.06
-16.18
-20.57
-25.52
-30.35
-34.53
-37.82
-40.24
-42.00
-43.23
-43.97
-44.10
-43.51
-42.20
-40.33
-38.14
-35.84
-33.48
-30.98
-28.28
-25.37
-22.36
-19.49
-17.00
-15.13
-14.07
-13.88
-14.36
-14.86
-14.36
-11.58
-5.48
4.39
17.51
32.55
47.74
61.45
72.58
80.75
86.10
89.04
89.88
88.71
85.32
79.47
71.02
60.28
48.03
35.50
24.12
15.14
9.26
6.54
6.36
7.73
9.58
10.96
11.21
9.97
7.11
2.72
-2.90
-9.24
-15.72
-21.76
-26.93
-30.99
-34.02
-36.25
-37.97
-39.32
-40.25
-40.50
-39.75
-37.86
-35.01
-31.67
-28.58
-26.48
-25.96
-27.32
-30.48
-34.91
-39.66
-43.44
-44.87
-42.85
-36.87
-27.15
-14.61
-0.55
13.62
26.69
37.68
45.91
50.98
52.77
51.56
47.99
42.94
37.34
32.00
27.47
24.10
22.08
21.48
22.28
24.38
27.49
31.24
35.14
38.67
41.35
42.76
42.55
40.51
36.66
31.20
24.61
17.51
10.55
4.27
-1.07
-5.55
-9.49
-13.40
-17.68
-22.42
-27.38
-32.09
-36.02
-38.95
-41.06
-42.89
-45.16
-48.46
-53.02
-58.50
-64.05
-68.36
-69.99
-67.68
-60.80
-49.50
-34.84
-18.45
-2.19
12.29
23.80
31.77
36.11
37.07
35.14
31.02
25.53
19.56
13.96
9.45
6.50
5.36
6.04
8.36
12.00
16.56
21.50
26.26
30.29
33.19
34.73
34.91
33.80
31.51
28.08
23.60
18.31
12.67
7.28
2.60
-1.18
-4.21
-6.98
-9.94
-13.34
-17.09
-20.92
-24.48
-27.64
-30.42
-33.00
-35.63
-38.59
-42.22
-46.81
-52.48
-58.93
-65.24
-69.84
-70.99
-67.29
-58.20
-44.32
-27.19
-8.87
8.63
23.68
35.26
42.87
46.50
46.55
43.73
38.89
32.97
26.84
21.21
16.67
13.67
12.47
13.19
15.65
19.49
24.22
29.28
34.13
38.27
41.29
42.92
43.04
41.69
39.00
35.20
30.45
24.97
19.08
13.18
7.77
3.27
-0.18
-2.76
-4.94
-7.24
-10.05
-13.45
-17.22
-20.99
-24.37
-27.19
-29.49
-31.54
-33.81
-36.76
-40.80
-46.06
-52.24
-58.45
-63.28
-65.09
-62.41
-54.43
-41.40
-24.59
-6.00
12.14
27.98
40.27
48.54
52.86
53.64
51.46
46.98
40.94
34.10
27.26
21.17
16.48
13.67
13.01
14.53
17.97
22.85
28.47
34.09
39.00
42.59
44.43
44.22
41.93
37.73
32.03
25.37
18.39
11.70
5.68
0.53
-3.84
-7.70
-11.40
-15.17
-19.10
-23.04
-26.71
-29.86
-32.37
-34.39
-36.27
-38.57
-41.82
-46.37
-52.06
-58.10
-63.07
-65.25
-63.05
-55.62
-43.15
-26.89
-8.79
9.07
24.94
37.64
46.61
51.72
53.12
51.21
46.58
40.01
32.40
24.73
17.92
12.75
9.84
9.50
11.73
16.10
21.85
28.01
33.67
38.13
41.05
42.38
42.20
40.60
37.62
33.26
27.68
21.23
14.50
8.12
2.61
-1.83
-5.32
-8.24
-11.06
-14.12
-17.46
-20.92
-24.12
-26.74
-28.61
-29.84
-30.86
-32.30
-34.81
-38.84
-44.35
-50.60
-56.21
-59.38
-58.36
-51.98
-40.09
-23.68
-4.65
14.73
32.31
46.56
56.67
62.46
64.15
62.17
57.06
49.46
40.23
30.39
21.06
13.27
7.78
4.97
4.78
6.80
10.42
14.96
19.79
24.41
28.42
31.47
33.26
33.57
32.25
29.36
25.14
19.97
14.30
8.54
2.92
-2.49
-7.76
-13.04
-18.50
-24.21
-30.13
-36.08
-41.76
-46.92
-51.43
-55.35
-58.98
-62.75
-67.12
-72.41
-78.60
-85.20
-91.06
-94.62
-94.13
-88.23
-76.39
-59.20
-38.36
-16.20
4.86
22.96
36.95
46.47
51.70
53.18
51.67
48.03
43.25
38.31
34.13
31.46
30.78
32.31
35.92
41.23
47.64
54.40
60.79
66.28
70.57
73.51
74.96
74.50
71.53
65.32
55.45
42.00
25.85
8.50
-8.34
-23.12
-34.95
-43.62
-49.52
-53.26
-55.43
-56.42
-56.45
-55.73
-54.47
-52.94
-51.39
-50.03
-49.07
-48.82
-49.75
-52.34
-56.76
-62.46
-68.11
-71.70
-71.10
-64.79
-52.33
-34.64
-13.70
7.91
27.64
43.41
53.97
58.99
58.89
54.73
47.80
39.43
30.74
22.55
15.44
9.81
5.96
4.14
4.51
7.11
11.85
18.41
26.36
35.15
44.14
52.69
60.12
65.75
68.94
69.24
66.46
60.85
53.06
44.00
34.68
25.85
17.90
10.82
4.37
-1.68
-7.41
-12.75
-17.48
-21.35
-24.22
-26.05
-27.09
-27.81
-28.91
-31.14
-35.02
-40.50
-46.68
-51.89
-54.04
-51.24
-42.50
-28.15
-9.80
9.99
28.51
43.47
53.51
58.28
58.23
54.30
47.44
38.53
28.27
17.29
6.29
-3.97
-12.63
-18.91
-22.26
-22.47
-19.78
-14.88
-8.72
-2.42
3.06
6.96
8.86
8.67
6.56
2.94
-1.67
-6.66
-11.46
-15.72
-19.33
-22.54
-25.78
-29.53
-34.06
-39.35
-45.00
-50.34
-54.58
-57.09
-57.61
-56.43
-54.38
-52.54
-51.82
-52.47
-53.85
-54.57
-52.96
-47.71
-38.39
-25.66
-10.97
3.91
17.39
28.38
36.31
41.06
42.71
41.60
38.18
32.99
26.71
19.98
13.48
7.81
3.53
1.10
0.79
2.57
6.07
10.67
15.67
20.43
24.49
27.48
29.11
29.10
27.22
23.45
18.07
11.70
5.02
-1.31
-7.04
-12.19
-16.98
-21.58
-25.92
-29.67
-32.40
-33.80
-33.88
-33.00
-31.91
-31.52
-32.66
-35.85
-40.98
-47.12
-52.60
-55.34
-53.44
-45.74
-32.26
-14.16
6.53
27.42
46.39
61.77
72.66
78.86
80.78
79.25
75.31
70.04
64.43
59.28
55.21
52.67
51.87
52.82
55.23
58.65
62.58
66.64
70.55
74.19
77.37
79.72
80.73
79.84
76.69
71.37
64.43
56.70
49.04
41.98
35.65
29.81
24.09
18.33
12.66
7.51
3.32
0.36
-1.44
-2.47
-3.27
-4.44
-6.52
-9.88
-14.56
-20.09
-25.39
-28.89
-28.87
-24.04
-13.98
0.62
18.15
36.58
53.95
68.70
79.78
86.57
88.69
85.96
78.41
66.36
50.42
31.63
11.35
-8.86
-27.52
-43.51
-56.29
-65.94
-72.95
-77.93
-81.26
-83.01
-82.99
-81.03
-77.23
-72.10
-66.45
-61.14
-56.73
-53.37
-50.86
-48.84
-47.10
-45.71
-44.99
-45.25
-46.55
-48.49
-50.36
-51.41
-51.17
-49.74
-47.78
-46.32
-46.47
-48.96
-53.89
-60.53
-67.37
-72.43
-73.69
-69.69
-59.91
-45.03
-26.72
-7.22
11.25
26.95
38.84
46.64
50.51
50.93
48.46
43.71
37.41
30.38
23.43
17.38
12.84
10.22
9.74
11.32
14.67
19.28
24.47
29.48
33.61
36.27
37.14
36.10
33.34
29.24
24.36
19.30
14.50
10.17
6.18
2.13
-2.44
-7.84
-14.03
-20.64
-27.01
-32.50
-36.78
-39.94
-42.47
-45.05
-48.23
-52.10
-56.06
-58.85
-58.89
-54.75
-45.67
-31.93
-14.87
3.46
20.86
35.52
46.36
53.18
56.36
56.64
54.78
51.40
46.93
41.66
35.83
29.69
23.58
18.02
13.67
11.16
10.97
13.25
17.67
23.39
29.27
34.10
36.94
37.27
35.13
31.03
25.71
19.96
14.30
8.97
3.85
-1.35
-7.01
-13.25
-19.94
-26.72
-33.07
-38.48
-42.64
-45.62
-47.92
-50.31
-53.55
-57.90
-62.83
-66.97
-68.49
-65.74
-57.94
-45.51
-30.02
-13.61
1.68
14.40
23.90
30.12
33.31
33.76
31.69
27.40
21.36
14.29
7.09
0.65
-4.43
-7.88
-9.77
-10.35
-9.86
-8.43
-6.14
-3.04
0.63
4.40
7.60
9.55
9.65
7.63
3.55
-2.24
-9.15
-16.52
-23.76
-30.43
-36.43
-41.97
-47.62
-54.04
-61.70
-70.42
-79.21
-86.36
-89.93
-88.36
-81.08
-68.65
-52.55
-34.74
-17.11
-1.32
11.38
20.09
24.24
23.76
19.15
11.38
1.77
-8.30
-17.62
-25.29
-30.62
-33.27
-33.14
-30.49
-25.89
-20.06
-13.65
-7.10
-0.56
5.87
11.92
17.02
20.35
21.17
19.09
14.33
7.65
0.12
-7.26
-13.87
-19.58
-24.66
-29.63
-35.02
-41.05
-47.50
-53.46
-57.48
-57.86
-53.23
-43.01
-27.71
-8.88
11.35
30.82
47.82
61.29
70.83
76.50
78.67
77.80
74.40
69.03
62.33
55.05
48.01
42.07
37.96
36.10
36.54
38.90
42.57
46.87
51.21
55.15
58.42
60.70
61.63
60.85
58.03
53.18
46.55
38.78
30.68
23.02
16.33
10.78
6.21
2.18
-1.82
-6.36
-11.88
-18.50
-25.84
-32.79
-37.60
-38.23
-33.15
-21.89
-5.40
14.14
34.04
51.82
65.86
75.49
80.78
82.18
80.19
75.28
67.93
58.67
48.16
37.15
26.48
17.00
9.55
4.79
2.97
3.87
6.76
10.65
14.55
17.69
19.65
20.32
19.66
17.66
14.26
9.40
3.14
-4.25
-12.27
-20.27
-27.57
-33.68
-38.41
-41.95
-44.83
-47.74
-51.30
-55.82
-61.11
-66.39
-70.43
-71.73
-68.79
-60.63
-47.14
-29.22
-8.75
11.89
30.38
45.03
55.07
60.64
62.36
60.97
57.05
50.99
43.24
34.53
25.94
18.69
13.89
12.13
13.41
17.10
22.20
27.66
32.57
36.32
38.51
38.99
37.73
34.84
30.55
25.22
19.27
13.05
6.75
0.39
-6.13
-12.84
-19.57
-25.96
-31.62
-36.31
-40.10
-43.44
-46.98
-51.27
-56.53
-62.36
-67.66
-70.78
-69.98
-63.97
-52.32
-35.82
-16.25
4.01
22.64
37.89
48.74
54.95
56.80
54.92
50.06
43.10
34.95
26.51
18.59
11.87
6.89
4.01
3.42
5.00
8.37
12.84
17.56
21.68
24.55
25.87
25.63
24.06
21.33
17.62
12.96
7.28
0.59
-6.95
-15.00
-23.07
-30.70
-37.48
-43.25
-48.01
-52.09
-55.94
-60.15
-65.19
-71.08
-77.18
-82.08
-83.95
-81.00
-72.24
-57.78
-39.05
-18.34
1.86
19.42
33.02
42.14
46.87
47.70
45.25
40.17
33.19
25.10
16.82
9.29
3.47
0.05
-0.61
1.35
5.33
10.41
15.66
20.34
24.11
26.93
28.80
29.59
28.95
26.48
21.96
15.53
7.72
-0.71
-9.05
-16.75
-23.51
-29.17
-33.74
-37.43
-40.78
-44.53
-49.33
-55.34
-61.78
-67.06
-69.10
-66.17
-57.53
-43.77
-26.54
-8.04
9.63
24.88
36.74
44.74
48.71
48.79
45.32
38.97
30.68
21.62
13.02
6.07
1.67
0.36
2.13
6.47
12.47
19.05
25.18
30.07
33.21
34.34
33.45
30.73
26.53
21.34
15.59
9.58
3.43
-2.92
-9.52
-16.35
-23.21
-29.81
-35.83
-41.06
-45.60
-49.81
-54.22
-59.39
-65.47
-71.98
-77.76
-81.17
-80.53
-74.66
-63.23
-46.79
-26.71
-4.86
16.68
35.85
50.97
60.91
65.34
64.75
60.24
53.30
45.38
37.70
31.05
25.93
22.47
20.53
19.72
19.50
19.31
18.84
18.18
17.76
18.17
19.69
22.06
24.46
25.69
24.84
21.53
16.17
9.74
3.42
-1.81
-5.41
-7.29
-7.81
-7.72
-7.95
-9.36
-12.39
-16.75
-21.47
-25.39
-27.77
-28.80
-29.40
-30.63
-32.79
-35.04
-35.50
-32.24
-24.24
-12.09
2.18
16.01
27.32
35.17
39.75
41.91
42.45
41.71
39.49
35.43
29.44
22.03
14.29
7.66
3.38
2.12
3.77
7.51
12.15
16.57
20.04
22.28
23.23
22.73
20.44
15.89
8.90
-0.21
-10.49
-20.69
-29.68
-36.83
-42.10
-45.99
-49.16
-52.21
-55.54
-59.27
-63.28
-67.21
-70.61
-73.06
-74.55
-75.60
-77.30
-80.85
-87.03
-95.49
-104.50
-111.24
-112.71
-106.69
-92.63
-71.87
-47.19
-21.90
1.12
20.00
34.06
43.40
48.56
50.10
48.55
44.46
38.65
32.22
26.45
22.61
21.68
24.18
30.11
39.00
49.98
61.99
73.85
84.30
92.23
96.71
97.11
93.30
85.67
75.11
62.90
50.39
38.79
28.83
20.67
13.95
8.02
2.15
-4.19
-11.22
-18.84
-26.68
-34.23
-40.98
-46.62
-51.18
-55.10
-59.15
-64.22
-70.86
-78.89
-87.17
-93.75
-96.38
-93.20
-83.51
-68.00
-48.60
-27.85
-8.20
8.51
21.39
30.24
35.37
37.25
36.33
33.00
27.67
20.93
13.53
6.47
0.73
-2.76
-3.40
-0.91
4.49
12.18
21.17
30.30
38.40
44.46
47.92
48.60
46.74
42.82
37.36
30.83
23.58
15.82
7.76
-0.44
-8.59
-16.49
-23.90
-30.62
-36.52
-41.66
-46.37
-51.18
-56.67
-63.09
-70.06
-76.42
-80.43
-80.17
-74.23
-62.21
-44.96
-24.34
-2.69
17.80
35.52
49.68
60.12
67.07
70.84
71.66
69.60
64.70
57.27
47.97
37.95
28.61
21.35
17.11
16.18
18.09
21.79
26.04
29.74
32.14
32.86
31.77
28.88
24.21
17.87
10.15
1.51
-7.43
-16.03
-23.85
-30.69
-36.61
-41.86
-46.66
-51.26
-55.87
-60.75
-66.17
-72.11
-78.04
-82.68
-84.21
-80.71
-70.88
-54.60
-33.09
-8.63
16.02
38.38
56.59
69.68
77.45
80.27
78.84
74.10
67.03
58.57
49.62
40.98
33.37
27.45
23.86
23.10
25.44
30.69
38.14
46.62
54.67
60.91
64.42
64.94
62.94
59.35
55.11
50.82
46.59
42.14
37.04
31.10
24.45
17.60
11.23
5.98
2.21
-0.20
-1.86
-3.77
-6.98
-12.16
-19.07
-26.35
-31.54
-31.76
-24.58
-9.00
13.98
41.32
68.66
91.57
106.78
113.02
111.14
103.40
92.45
80.44
68.56
57.18
46.43
36.48
27.80
20.95
16.30
13.88
13.51
14.87
17.69
21.67
26.31
30.90
34.56
36.44
35.93
32.73
27.00
19.24
10.27
1.04
-7.62
-15.18
-21.58
-27.25
-32.89
-39.15
-46.40
-54.48
-62.93
-71.18
-78.90
-86.24
-93.81
-102.48
-112.85
-124.67
-136.48
-145.85
-149.91
-146.35
-134.29
-114.73
-90.21
-64.15
-39.87
-19.88
-5.51
3.11
6.73
6.64
4.32
1.05
-2.25
-5.23
-7.87
-10.33
-12.60
-14.38
-15.12
-14.21
-11.24
-6.16
0.62
8.31
15.88
22.22
26.42
27.88
26.49
22.61
17.03
10.83
5.14
0.75
-2.02
-3.53
-4.62
-6.36
-9.53
-14.38
-20.46
-26.86
-32.68
-37.31
-40.69
-43.28
-45.96
-49.69
-55.27
-62.85
-71.65
-79.93
-85.26
-85.17
-78.08
-63.90
-44.18
-21.72
0.19
18.74
32.12
39.70
41.78
39.21
33.05
24.30
14.00
3.27
-6.59
-14.19
-18.27
-18.08
-13.56
-5.39
5.23
16.91
28.44
38.95
47.90
54.94
59.72
61.90
61.29
58.02
52.58
45.79
38.62
31.87
25.99
21.08
16.92
13.25
9.87
6.77
3.99
1.54
-0.75
-3.26
-6.50
-11.06
-17.38
-25.53
-35.04
-44.73
-52.89
-57.58
-57.05
-50.39
-37.72
-20.35
-0.31
20.04
38.61
53.76
64.54
70.55
71.91
69.08
62.79
54.12
44.28
34.56
26.16
20.01
16.62
16.13
18.34
22.84
29.18
36.83
45.25
53.69
61.26
66.91
69.76
69.33
65.87
60.31
54.08
48.63
44.94
43.35
43.55
44.79
46.19
46.70
45.35
41.25
33.94
23.58
10.99
-2.67
-16.40
-29.66
-42.32
-54.07
-63.97
-70.24
-70.91
-64.68
-51.91
-34.75
-16.50
-0.52
10.91
17.00
18.28
15.81
10.53
2.93
-6.90
-18.68
-31.61
-44.12
-54.21
-59.99
-60.32
-55.21
-45.73
-33.63
-20.72
-8.39
2.60
12.08
20.15
26.88
32.04
35.18
35.73
33.23
27.54
18.97
8.28
-3.43
-14.96
-25.26
-33.71
-40.18
-45.01
-48.95
-52.86
-57.63
-64.01
-72.25
-81.95
-91.85
-99.88
-103.58
-100.81
-90.47
-72.95
-50.17
-25.03
-0.63
20.42
36.50
46.98
52.02
52.29
48.69
42.22
34.01
25.22
16.99
10.40
6.27
5.15
7.17
12.02
19.06
27.38
36.07
44.30
51.41
56.87
60.20
60.98
58.95
54.23
47.32
39.13
30.55
22.18
14.05
5.80
-2.93
-12.23
-21.66
-30.37
-37.54
-42.67
-45.88
-47.97
-50.15
-53.62
-59.15
-66.51
-74.32
-80.15
-81.17
-75.06
-60.81
-39.19
-12.54
15.86
42.74
65.53
82.76
94.02
99.68
100.57
97.72
92.19
85.02
77.19
69.57
62.89
57.71
54.40
53.07
53.66
55.95
59.53
63.87
68.21
71.63
73.16
71.95
67.55
60.17
50.60
40.02
29.55
19.90
11.15
2.91
-5.42
-14.22
-23.41
-32.43
-40.56
-47.23
-52.31
-56.22
-59.72
-63.76
-69.09
-76.14
-84.70
-93.93
-102.29
-107.74
-108.12
-101.77
-88.17
-68.20
-44.16
-19.16
3.66
21.86
34.08
40.11
40.54
36.47
29.21
20.07
10.33
1.14
-6.57
-12.18
-15.36
-16.04
-14.35
-10.51
-4.91
1.94
9.40
16.69
22.99
27.52
29.69
29.16
26.02
20.70
13.98
6.82
0.08
-5.71
-10.52
-14.77
-19.06
-23.91
-29.47
-35.38
-41.00
-45.66
-49.01
-51.19
-52.80
-54.70
-57.81
-62.84
-70.08
-79.12
-88.70
-96.73
-100.73
-98.44
-88.62
-71.54
-49.00
-23.78
1.11
23.16
40.74
53.08
60.07
62.08
59.77
54.04
46.02
36.90
27.88
20.03
14.18
10.97
10.75
13.59
19.17
26.78
35.35
43.69
50.67
55.43
57.59
57.15
54.44
49.97
44.27
37.89
31.35
25.15
19.59
14.74
10.43
6.39
2.43
-1.31
-4.47
-6.64
-7.68
-7.97
-8.36
-10.01
-13.80
-19.98
-27.78
-35.46
-40.75
-41.46
-36.29
-25.12
-9.12
9.69
28.99
46.63
61.02
71.14
76.50
77.05
73.12
65.34
54.64
42.09
28.91
16.42
5.93
-1.38
-4.67
-3.65
1.31
9.15
18.43
27.54
35.06
39.97
41.77
40.49
36.60
30.77
23.68
15.78
7.28
-1.72
-11.08
-20.48
-29.37
-37.15
-43.31
-47.66
-50.42
-52.22
-53.97
-56.72
-61.50
-68.93
-78.84
-89.97
-99.98
-106.03
-105.57
-97.32
-81.64
-60.54
-36.92
-13.71
6.84
23.40
35.43
42.92
46.01
45.10
40.78
33.98
25.85
17.63
10.47
5.29
2.71
3.03
6.19
11.83
19.18
27.19
34.59
40.18
43.06
42.78
39.41
33.43
25.60
16.61
7.03
-2.82
-12.80
-22.75
-32.49
-41.74
-50.13
-57.38
-63.35
-68.15
-72.24
-76.36
-81.37
-87.95
-96.17
-105.11
-112.79
-116.46
-113.40
-101.76
-81.44
-54.14
-23.06
8.05
35.86
58.08
73.69
82.69
85.76
83.93
78.40
70.55
61.85
53.65
47.06
42.73
40.84
41.16
43.16
46.23
49.83
53.53
56.99
59.87
61.70
61.79
59.39
53.95
45.42
34.49
22.35
10.42
-0.20
-9.04
-16.33
-22.66
-28.60
-34.40
-39.87
-44.63
-48.30
-50.75
-52.21
-53.19
-54.47
-56.91
-61.27
-67.86
-76.13
-84.46
-90.29
-90.75
-83.51
-67.67
-44.26
-16.03
13.33
40.17
61.72
76.62
84.77
86.97
84.48
78.57
70.43
61.12
51.70
43.19
36.52
32.32
30.81
31.65
34.13
37.37
40.53
43.05
44.54
44.77
43.42
40.11
34.48
26.47
16.38
4.97
-6.79
-17.84
-27.41
-35.10
-41.02
-45.59
-49.44
-53.15
-57.08
-61.25
-65.40
-69.09
-71.98
-74.02
-75.52
-77.17
-79.81
-84.11
-90.13
-97.07
-103.10
-105.78
-102.60
-91.84
-73.23
-48.12
-19.13
10.55
37.92
60.75
77.81
88.78
93.94
94.00
89.90
82.72
73.68
64.06
55.10
47.90
43.30
41.65
42.78
46.03
50.43
54.98
58.91
61.77
63.38
63.70
62.60
59.86
55.16
48.35
39.58
29.43
18.79
8.61
-0.36
-7.81
-13.86
-18.96
-23.62
-28.21
-32.78
-37.17
-41.12
-44.46
-47.22
-49.57
-51.90
-54.68
-58.45
-63.73
-70.79
-79.32
-88.10
-95.04
-97.50
-93.18
-80.91
-61.16
-36.02
-8.55
18.08
41.37
59.72
72.41
79.31
80.74
77.31
70.03
60.26
49.57
39.50
31.29
25.70
23.05
23.23
25.85
30.32
36.01
42.28
48.52
54.05
58.24
60.44
60.11
56.94
51.05
42.99
33.70
24.25
15.61
8.33
2.45
-2.49
-7.14
-12.05
-17.41
-22.92
-27.97
-31.93
-34.42
-35.63
-36.27
-37.44
-40.20
-45.32
-52.73
-61.39
-69.27
-73.72
-72.27
-63.37
-46.98
-24.61
0.99
26.69
49.75
68.23
81.18
88.42
90.28
87.38
80.61
71.05
60.06
49.06
39.43
32.27
28.22
27.39
29.41
33.56
39.02
44.94
50.65
55.53
58.93
60.19
58.63
53.81
45.69
34.85
22.34
9.46
-2.63
-13.30
-22.44
-30.48
-37.93
-45.14
-52.16
-58.70
-64.38
-68.99
-72.59
-75.61
-78.72
-82.76
-88.47
-96.31
-106.03
-116.37
-125.03
-129.09
-125.80
-113.63
-92.88
-65.69
-35.49
-5.82
20.51
41.83
57.51
67.63
72.49
72.50
68.35
61.02
51.89
42.56
34.51
28.85
26.24
26.76
30.03
35.35
41.78
48.41
54.51
59.52
63.12
65.14
65.43
63.87
60.39
54.99
47.85
39.37
30.10
20.76
12.01
4.36
-1.99
-7.21
-11.80
-16.34
-21.21
-26.46
-31.74
-36.54
-40.52
-43.63
-46.26
-49.16
-53.15
-59.02
-67.18
-77.38
-88.41
-98.12
-103.73
-102.52
-92.78
-74.46
-49.36
-20.68
7.94
33.31
53.36
67.20
74.88
76.98
74.28
67.75
58.54
48.05
37.75
28.96
22.62
19.13
18.46
20.26
24.04
29.30
35.45
41.82
47.68
52.28
55.07
55.81
54.54
51.52
47.06
41.44
34.86
27.60
20.02
12.54
5.65
-0.29
-5.12
-8.90
-11.90
-14.45
-16.93
-19.61
-22.59
-25.79
-29.08
-32.32
-35.53
-39.02
-43.35
-49.15
-56.77
-65.88
-75.19
-82.52
-85.27
-81.26
-69.43
-50.33
-25.99
0.65
26.51
49.07
66.65
78.44
84.34
84.78
80.60
73.03
63.45
53.24
43.50
35.00
28.19
23.40
20.92
21.00
23.70
28.63
34.93
41.39
46.69
49.75
49.96
47.29
42.17
35.32
27.53
19.39
11.32
3.45
-4.17
-11.52
-18.53
-25.05
-30.97
-36.28
-41.19
-45.94
-50.73
-55.53
-60.08
-64.01
-67.15
-69.64
-71.99
-75.04
-79.57
-86.13
-94.67
-104.46
-113.96
-121.06
-123.46
-119.17
-107.25
-88.06
-63.39
-36.02
-9.01
14.94
34.03
47.42
55.14
57.66
55.74
50.26
42.14
32.47
22.46
13.33
6.23
2.00
1.03
3.21
8.04
14.64
22.04
29.31
35.66
40.49
43.43
44.22
42.77
39.20
33.79
27.13
19.93
12.91
6.53
0.86
-4.38
-9.62
-15.16
-20.94
-26.49
-31.22
-34.65
-36.74
-38.02
-39.36
-41.79
-46.22
-53.13
-62.39
-73.13
-83.62
-91.51
-94.33
-90.17
-78.40
-60.06
-37.69
-14.63
5.88
21.54
31.40
35.70
35.52
32.11
26.52
19.42
11.16
1.98
-7.69
-17.15
-25.36
-31.16
-33.58
-32.06
-26.65
-18.01
-7.25
4.31
15.36
24.79
31.89
36.41
38.60
39.17
39.05
39.01
39.29
39.46
38.66
36.21
32.26
27.96
24.99
24.79
27.74
32.92
38.45
42.31
43.04
39.95
32.88
21.98
7.65
-9.14
-26.44
-41.31
-50.30
-50.41
-40.02
-19.46
9.04
41.89
74.99
104.46
127.34
141.82
147.44
144.86
135.57
121.52
104.72
86.94
69.60
53.80
40.26
29.50
21.73
16.87
14.56
14.06
14.42
14.63
13.86
11.57
7.72
2.51
-3.69
-10.46
-17.45
-24.21
-30.18
-34.79
-37.74
-39.27
-40.31
-42.11
-45.68
-51.24
-58.08
-64.94
-70.68
-74.85
-77.79
-80.19
-82.62
-85.05
-86.89
-87.19
-85.07
-79.73
-70.59
-57.19
-39.46
-17.93
5.96
29.95
51.49
68.43
79.66
85.23
86.09
83.33
77.63
69.07
57.37
42.62
25.75
8.68
-6.21
-16.83
-22.21
-22.73
-19.83
-15.25
-10.46
-6.30
-3.19
-1.43
-1.41
-3.42
-7.41
-12.68
-18.05
-22.39
-25.16
-26.74
-28.22
-30.79
-35.01
-40.50
-46.12
-50.62
-53.34
-54.58
-55.42
-57.23
-61.03
-67.04
-74.62
-82.36
-88.40
-90.81
-87.96
-78.89
-63.65
-43.39
-20.19
3.37
24.75
42.11
54.45
61.67
64.26
62.93
58.38
51.18
41.85
31.04
19.72
9.14
0.73
-4.33
-5.30
-2.20
4.24
12.76
21.93
30.43
37.23
41.73
43.59
42.68
38.97
32.57
23.89
13.65
2.83
-7.61
-16.92
-24.89
-31.81
-38.26
-44.87
-51.91
-59.45
-67.34
-75.41
-83.31
-90.26
-94.92
-95.45
-90.12
-77.91
-59.19
-35.71
-10.21
14.38
35.66
52.15
63.40
69.65
71.53
69.81
65.23
58.50
50.23
41.09
31.83
23.28
16.25
11.46
9.34
10.01
13.20
18.27
24.30
30.20
34.93
37.62
37.89
35.77
31.60
25.91
19.02
11.15
2.43
-6.92
-16.50
-25.73
-34.14
-41.51
-47.93
-53.78
-59.49
-65.51
-72.24
-80.01
-88.78
-97.83
-105.54
-109.41
-106.90
-96.16
-76.97
-50.94
-21.13
8.85
35.75
57.36
72.70
81.71
85.05
83.78
79.14
72.36
64.57
56.62
49.10
42.35
36.55
31.89
28.65
27.17
27.74
30.44
34.94
40.43
45.77
49.66
51.09
49.59
45.37
39.20
32.08
24.84
17.83
10.95
3.77
-4.13
-12.84
-22.04
-30.99
-38.96
-45.48
-50.59
-54.80
-58.99
-64.10
-70.79
-79.10
-88.15
-96.19
-100.80
-99.62
-91.00
-74.70
-52.09
-25.79
1.06
25.58
45.77
60.65
70.06
74.33
74.13
70.26
63.73
55.65
47.18
39.34
32.89
28.24
25.53
24.65
25.42
27.57
30.85
34.89
39.21
43.24
46.30
47.77
47.19
44.34
39.37
32.71
25.01
16.94
9.02
1.45
-5.85
-13.10
-20.50
-27.98
-35.24
-41.80
-47.28
-51.59
-55.13
-58.74
-63.42
-69.94
-78.32
-87.49
-95.32
-99.09
-96.34
-85.73
-67.53
-43.68
-17.15
8.85
31.68
49.68
62.23
69.49
72.09
70.87
66.71
60.40
52.67
44.17
35.56
27.54
20.85
16.25
14.37
15.46
19.31
25.14
31.75
37.77
41.95
43.47
42.06
38.07
32.10
24.93
17.15
9.07
0.83
-7.56
-16.01
-24.31
-32.15
-39.26
-45.52
-50.97
-55.97
-60.97
-66.52
-73.04
-80.57
-88.50
-95.46
-99.41
-98.06
-89.69
-73.78
-51.48
-25.34
1.29
25.38
44.78
58.68
67.23
71.17
71.32
68.46
63.27
56.48
48.92
41.45
34.79
29.41
25.53
23.24
22.56
23.55
26.24
30.45
35.66
40.95
45.19
47.26
46.49
42.79
36.63
28.87
20.49
12.29
4.70
-2.18
-8.68
-15.19
-22.10
-29.45
-36.94
-43.98
-50.03
-54.86
-58.73
-62.43
-66.97
-73.22
-81.41
-90.77
-99.49
-105.02
-104.73
-96.75
-80.79
-58.23
-31.83
-4.84
19.83
40.30
55.73
66.09
71.78
73.30
71.30
66.59
60.17
53.13
46.42
40.71
36.35
33.42
31.90
31.75
33.00
35.57
39.26
43.64
48.05
51.65
53.64
53.38
50.59
45.47
38.58
30.73
22.74
15.21
8.40
2.22
-3.66
-9.60
-15.89
-22.51
-29.24
-35.78
-41.82
-47.25
-52.16
-56.86
-61.81
-67.63
-74.87
-83.79
-93.92
-103.86
-111.30
-113.47
-108.10
-94.25
-72.89
-46.60
-18.90
6.90
28.43
44.59
55.31
61.04
62.34
59.80
54.19
46.64
38.56
31.43
26.37
23.82
23.49
24.59
26.22
27.81
29.21
30.58
32.14
33.89
35.55
36.73
37.08
36.47
34.93
32.58
29.49
25.74
21.48
16.90
12.23
7.62
2.95
-2.09
-7.86
-14.50
-21.82
-29.32
-36.39
-42.50
-47.42
-51.28
-54.48
-57.75
-61.93
-67.73
-75.36
-84.08
-92.07
-96.75
-95.53
-86.78
-70.44
-48.13
-22.60
3.15
26.55
45.94
60.43
69.68
73.80
73.22
68.79
61.69
53.20
44.46
36.31
29.28
23.71
19.97
18.38
19.09
21.95
26.40
31.56
36.55
40.58
43.10
43.75
42.33
38.72
33.11
25.90
17.81
9.61
1.85
-5.33
-12.13
-18.92
-25.85
-32.64
-38.76
-43.73
-47.41
-50.17
-52.78
-56.03
-60.48
-66.37
-73.61
-81.86
-90.54
-98.60
-104.54
-106.57
-103.03
-92.97
-76.55
-55.15
-31.10
-7.14
14.15
30.85
41.85
46.89
46.30
40.85
31.76
20.65
9.46
-0.02
-6.81
-11.37
-15.69
-22.59
-34.67
-53.21
-77.70
-106.19
-136.00
-164.50
-189.41
-208.78
-221.03
-225.09
-220.81
-209.06
-191.71
-171.02
-149.08
-127.45
-107.10
-88.62
-72.38
-58.43
-46.49
-36.06
-26.64
-18.18
-11.30
-7.02
-6.29
-9.10
-14.13
-18.77
-19.98
-15.23
-3.61
13.80
34.31
54.49
71.44
83.47
90.27
92.56
91.49
88.23
83.58
77.99
71.40
63.30
53.18
41.16
28.61
18.33
13.89
18.53
34.04
60.12
94.71
134.89
177.77
220.93
262.16
299.23
329.63
351.12
362.27
363.22
355.71
342.74
327.81
314.20
304.35
299.49
299.32
302.05
304.77
304.21
297.55
283.18
260.99
232.07
198.04
160.32
119.59
75.70
28.26
-22.48
-74.79
-125.07
-168.42
-199.86
-215.94
-216.00
-202.44
-179.83
-153.37
-127.38
-104.51
-85.98
-72.35
-64.20
-62.23
-66.84
-77.32
-91.53
-106.23
-117.92
-123.97
-123.35
-116.85
-106.50
-94.69
-83.40
-73.72
-65.74
-58.86
-52.32
-45.54
-38.46
-31.55
-25.61
-21.57
-20.06
-21.21
-24.53
-29.06
-33.63
-37.16
-39.01
-39.05
-37.87
-36.67
-37.28
-41.73
-51.90
-68.73
-91.66
-118.31
-144.63
-165.99
-178.31
-179.34
-169.19
-150.18
-125.91
-100.35
-76.87
-57.72
-43.84
-34.81
-29.05
-24.17
-17.59
-7.39
6.99
24.59
43.44
61.55
77.86
92.58
106.89
122.04
138.56
155.78
172.04
185.25
193.57
195.91
192.05
182.52
168.50
151.48
132.98
114.12
95.47
77.01
58.51
39.96
21.87
5.36
-8.25
-17.97
-23.55
-25.58
-25.30
-24.19
-23.66
-24.69
-27.75
-32.71
-38.76
-44.52
-48.32
-48.64
-44.58
-36.16
-24.33
-10.71
2.84
14.63
23.53
28.99
31.11
30.36
27.41
22.98
17.68
12.02
6.46
1.39
-2.83
-5.92
-7.66
-7.94
-6.79
-4.42
-1.20
2.41
5.86
8.71
10.57
11.24
10.66
8.92
6.14
2.52
-1.69
-6.34
-11.25
-16.27
-21.22
-25.92
-30.15
-33.79
-36.94
-39.82
-42.77
-45.99
-49.30
-52.08
-53.35
-52.02
-47.32
-39.13
-28.09
-15.45
-2.72
8.76
18.11
25.07
29.78
32.57
33.70
33.33
31.54
28.44
24.30
19.48
14.50
9.86
6.03
3.41
2.29
2.68
4.37
6.91
9.76
12.44
14.54
15.80
16.03
15.06
12.78
9.26
4.77
-0.20
-5.10
-9.45
-13.07
-16.06
-18.80
-21.74
-25.21
-29.35
-33.98
-38.61
-42.40
-44.34
-43.48
-39.19
-31.43
-20.82
-8.57
3.87
15.16
24.43
31.28
35.73
38.00
38.38
37.10
34.42
30.65
26.23
21.61
17.26
13.58
10.88
9.33
8.92
9.50
10.75
12.35
13.98
15.46
16.64
17.34
17.32
16.32
14.13
10.69
6.17
0.94
-4.62
-10.21
-15.66
-20.85
-25.76
-30.38
-34.76
-39.08
-43.60
-48.49
-53.67
-58.66
-62.53
-64.19
-62.62
-57.32
-48.51
-37.11
-24.58
-12.49
-2.16
5.58
10.45
12.64
12.56
10.61
7.16
2.53
-2.88
-8.52
-13.74
-17.97
-20.87
-22.50
-23.17
-23.28
-23.08
-22.59
-21.69
-20.22
-18.20
-15.76
-13.10
-10.51
-8.45
-7.68
-9.08
-13.35
-20.47
-29.44
-38.37
-45.03
-47.59
-45.16
-38.07
-27.57
-15.34
-3.12
7.54
15.37
19.39
18.98
14.10
5.40
-5.68
-17.11
-26.57
-31.93
-31.83
-25.96
-15.29
-1.71
12.45
25.11
34.92
41.39
44.81
45.80
45.01
42.95
39.85
35.85
31.25
26.52
22.24
19.00
17.12
16.59
17.16
18.44
20.05
21.79
23.54
25.23
26.71
27.67
27.74
26.58
24.02
20.14
15.25
9.81
4.36
-0.70
-5.11
-8.86
-12.16
-15.37
-18.86
-22.81
-27.16
-31.57
-35.61
-38.90
-41.33
-43.15
-44.83
-46.99
-50.12
-54.47
-59.77
-65.23
-69.52
-71.07
-68.44
-60.82
-48.37
-32.29
-14.56
2.63
17.47
28.84
36.42
40.47
41.56
40.28
37.19
32.80
27.67
22.38
17.53
13.62
11.04
9.96
10.36
12.03
14.66
17.85
21.24
24.49
27.36
29.58
30.97
31.36
30.60
28.65
25.61
21.68
17.17
12.39
7.61
3.01
-1.32
-5.46
-9.45
-13.33
-17.00
-20.22
-22.80
-24.67
-25.99
-27.19
-28.83
-31.37
-35.11
-40.03
-45.82
-51.87
-57.24
-60.76
-61.16
-57.38
-48.87
-35.99
-19.94
-2.54
14.16
28.49
39.39
46.56
50.23
51.01
49.52
46.33
41.94
36.84
31.57
26.74
22.94
20.63
20.01
20.93
23.04
25.88
29.06
32.30
35.43
38.26
40.47
41.63
41.30
39.22
35.48
30.47
24.78
19.03
13.58
8.52
3.71
-0.98
-5.64
-10.23
-14.67
-18.85
-22.75
-26.38
-29.76
-32.86
-35.68
-38.26
-40.79
-43.62
-47.06
-51.23
-55.89
-60.30
-63.34
-63.77
-60.56
-53.24
-42.18
-28.48
-13.73
0.40
12.54
21.90
28.19
31.54
32.31
30.93
27.91
23.79
19.17
14.59
10.53
7.34
5.24
4.41
4.93
6.83
9.96
14.04
18.62
23.26
27.43
30.65
32.51
32.65
30.94
27.47
22.61
16.94
11.10
5.52
0.32
-4.61
-9.53
-14.54
-19.48
-24.02
-27.76
-30.48
-32.32
-33.74
-35.31
-37.56
-40.73
-44.70
-48.91
-52.48
-54.26
-53.17
-48.41
-39.77
-27.80
-13.70
0.89
14.33
25.39
33.45
38.47
40.83
41.03
39.52
36.66
32.81
28.45
24.11
20.33
17.50
15.85
15.42
16.09
17.74
20.14
23.01
25.91
28.37
29.88
30.07
28.79
26.04
22.04
17.21
12.03
6.96
2.36
-1.70
-5.41
-9.12
-13.15
-17.63
-22.34
-26.86
-30.78
-33.84
-36.09
-37.86
-39.66
-41.96
-45.14
-49.20
-53.68
-57.56
-59.49
-58.13
-52.61
-42.89
-29.81
-14.91
0.10
13.65
24.66
32.61
37.42
39.37
38.92
36.66
33.17
29.04
24.77
20.78
17.45
15.04
13.70
13.48
14.30
16.00
18.41
21.30
24.38
27.26
29.49
30.60
30.30
28.51
25.44
21.51
17.20
12.98
9.13
5.71
2.59
-0.50
-3.80
-7.46
-11.41
-15.44
-19.27
-22.66
-25.52
-27.95
-30.17
-32.52
-35.39
-39.08
-43.60
-48.53
-52.95
-55.56
-55.02
-50.40
-41.55
-29.18
-14.74
0.01
13.42
24.23
31.81
36.08
37.44
36.52
34.05
30.65
26.81
22.86
19.12
15.89
13.47
12.13
12.00
13.06
15.19
18.17
21.73
25.49
29.01
31.79
33.42
33.63
32.37
29.79
26.10
21.66
16.83
12.04
7.69
4.03
0.97
-1.81
-4.77
-8.26
-12.32
-16.66
-20.79
-24.34
-27.19
-29.53
-31.73
-34.18
-37.26
-41.19
-45.99
-51.37
-56.59
-60.53
-61.88
-59.50
-52.84
-42.19
-28.62
-13.63
1.17
14.44
25.23
33.07
37.86
39.76
39.16
36.59
32.67
28.01
23.23
18.89
15.45
13.28
12.57
13.33
15.38
18.35
21.83
25.38
28.63
31.27
33.08
33.89
33.57
32.02
29.24
25.32
20.49
15.17
9.84
4.92
0.66
-2.97
-6.17
-9.27
-12.53
-16.05
-19.76
-23.48
-27.00
-30.14
-32.81
-35.02
-36.94
-38.88
-41.32
-44.70
-49.22
-54.58
-59.84
-63.52
-64.02
-60.11
-51.42
-38.61
-23.22
-7.13
7.87
20.59
30.52
37.67
42.30
44.70
44.99
43.31
39.92
35.32
30.32
25.92
22.96
22.02
23.25
26.34
30.78
36.07
41.84
48.00
54.53
61.31
68.01
74.13
79.18
82.86
85.18
86.44
87.09
87.58
88.35
89.74
91.88
94.31
95.71
93.86
86.29
71.43
49.57
23.22
-3.55
-26.65
-43.62
-54.35
-60.90
-66.25
-72.94
-82.43
-95.08
-110.72
-129.02
-149.40
-170.65
-190.72
-206.95
-216.74
-218.33
-211.22
-196.29
-175.45
-151.22
-126.29
-103.28
-84.41
-71.14
-63.90
-61.95
-63.58
-66.69
-69.21
-69.54
-66.79
-60.72
-51.70
-40.56
-28.33
-16.09
-4.80
4.93
12.80
18.84
23.21
26.16
27.90
28.59
28.45
27.68
26.55
25.27
23.92
22.52
21.09
19.65
18.20
16.59
14.43
11.20
6.54
0.43
-6.56
-13.60
-20.01
-25.68
-31.19
-37.43
-44.96
-53.50
-61.79
-68.00
-70.51
-68.38
-61.70
-51.30
-38.39
-24.18
-9.78
3.72
15.25
23.80
28.62
29.51
26.99
22.13
16.37
11.11
7.37
5.63
5.80
7.37
9.59
11.69
13.20
14.15
15.21
17.54
22.32
30.16
40.67
52.37
63.16
71.12
75.16
75.31
72.48
67.94
62.76
57.55
52.55
47.98
44.18
41.57
40.36
40.38
40.95
41.11
39.86
36.55
30.95
23.31
14.28
4.78
-3.96
-10.63
-13.90
-12.77
-6.85
3.39
16.81
31.83
46.91
60.82
72.72
82.08
88.54
91.84
91.89
88.87
83.39
76.45
69.31
63.21
59.18
57.66
58.46
60.70
63.09
64.41
63.87
61.41
57.50
52.81
47.79
42.52
36.77
30.43
23.73
17.33
12.00
8.18
5.69
3.81
1.56
-1.74
-6.18
-11.17
-15.85
-19.46
-21.68
-22.79
-23.46
-24.53
-26.73
-30.46
-35.75
-42.11
-48.50
-53.41
-55.17
-52.46
-44.73
-32.56
-17.49
-1.61
13.08
25.19
34.08
39.73
42.42
42.51
40.21
35.57
28.68
19.69
9.06
-2.41
-13.62
-23.29
-30.25
-33.77
-33.78
-30.96
-26.51
-21.86
-18.30
-16.63
-17.03
-19.09
-22.05
-25.12
-27.73
-29.70
-31.19
-32.55
-34.10
-36.07
-38.45
-41.02
-43.45
-45.32
-46.34
-46.41
-45.77
-45.02
-44.76
-45.39
-46.76
-48.17
-48.61
-47.26
-43.89
-38.98
-33.56
-28.80
-25.53
-24.02
-24.08
-25.28
-27.33
-30.24
-34.17
-39.22
-45.20
-51.44
-56.95
-60.74
-62.17
-61.11
-57.93
-53.13
-47.15
-40.16
-32.18
-23.30
-13.93
-4.81
3.20
9.39
13.49
15.70
16.41
16.13
15.21
13.93
12.67
11.88
11.96
13.02
14.67
15.91
15.50
12.32
6.01
-2.70
-11.93
-19.09
-21.61
-17.76
-7.18
9.02
28.67
49.13
67.89
82.92
92.86
97.08
95.76
89.88
81.07
71.13
61.53
53.01
45.54
38.67
32.16
26.25
21.69
19.23
19.15
21.01
23.81
26.53
28.53
29.76
30.62
31.55
32.59
33.32
32.91
30.52
25.67
18.40
9.28
-0.92
-11.46
-21.84
-31.82
-41.38
-50.60
-59.51
-67.97
-75.44
-81.07
-83.75
-82.47
-76.58
-66.10
-51.79
-34.96
-17.28
-0.33
14.51
26.21
34.14
37.99
37.89
34.32
28.13
20.32
11.85
3.50
-4.09
-10.34
-14.65
-16.45
-15.38
-11.53
-5.56
1.38
8.02
13.43
17.27
19.83
21.73
23.49
25.31
26.96
28.10
28.55
28.35
27.66
26.36
23.91
19.36
11.94
1.70
-10.04
-20.81
-27.73
-28.51
-22.25
-9.74
6.94
25.12
42.37
56.91
67.85
75.03
78.76
79.63
78.25
75.16
70.77
65.37
59.24
52.67
45.97
39.47
33.49
28.39
24.64
22.69
22.90
25.17
28.87
32.86
35.78
36.49
34.49
30.00
23.89
17.19
10.79
5.15
0.19
-4.44
-9.19
-14.32
-19.86
-25.66
-31.41
-36.63
-40.70
-42.83
-42.14
-37.94
-30.09
-19.20
-6.61
5.94
16.82
24.96
30.02
32.30
32.38
30.78
27.65
22.93
16.53
8.73
0.40
-7.16
-12.56
-14.87
-14.07
-10.97
-6.89
-3.05
-0.12
2.04
4.13
7.02
11.38
17.37
24.71
32.80
40.87
48.21
54.29
58.83
61.79
63.43
64.15
64.44
64.76
65.51
67.11
70.04
74.85
82.05
91.94
104.40
118.84
134.21
149.26
162.76
173.66
181.16
184.59
183.35
176.93
165.03
147.85
126.15
101.33
75.23
49.67
26.04
4.94
-13.87
-31.30
-48.52
-66.43
-85.48
-105.44
-125.64
-145.10
-162.80
-177.79
-189.29
-196.74
-199.78
-198.43
-193.01
-184.22
-173.11
-160.94
-149.14
-139.05
-131.69
-127.48
-126.05
-126.28
-126.57
-125.33
-121.39
-114.35
-104.63
-93.26
-81.64
-71.16
-63.04
-58.07
-56.39
-57.29
-59.36
-60.86
-60.36
-57.36
-52.50
-47.30
-43.40
-41.76
-42.22
-43.51
-43.94
-42.02
-37.06
-29.23
-19.28
-8.21
3.05
13.70
23.02
30.35
35.10
37.03
36.34
33.80
30.48
27.42
25.20
23.78
22.53
20.54
17.15
12.36
7.11
3.02
1.93
5.15
13.00
24.56
37.95
51.04
62.00
69.89
74.67
76.99
77.72
77.60
76.98
75.79
73.73
70.41
65.70
59.84
53.50
47.64
43.17
40.67
40.05
40.64
41.28
40.78
38.25
33.36
26.44
18.27
9.92
2.41
-3.35
-6.86
-8.08
-7.47
-5.95
-4.65
-4.62
-6.55
-10.62
-16.45
-23.21
-29.70
-34.56
-36.44
-34.40
-28.19
-18.40
-6.41
6.00
17.16
26.03
32.28
36.20
38.33
39.21
39.26
38.86
38.49
38.68
39.83
41.95
44.57
46.97
48.50
48.93
48.48
47.55
46.26
44.28
40.88
35.43
27.86
18.98
10.29
3.59
0.30
1.07
5.54
12.46
19.98
26.09
29.14
28.20
23.30
15.45
6.35
-1.91
-7.27
-8.06
-3.36
6.87
21.73
39.45
57.77
74.40
87.65
96.77
102.12
104.82
106.17
107.06
107.72
107.75
106.62
104.22
101.12
98.36
96.93
97.30
99.20
101.90
104.59
106.75
108.21
108.83
108.22
105.50
99.61
89.76
75.97
59.25
41.39
24.57
10.71
1.07
-4.07
-5.47
-4.64
-3.48
-3.78
-6.78
-12.82
-21.22
-30.34
-38.08
-42.45
-42.19
-37.10
-27.94
-16.30
-4.07
7.08
16.12
22.98
28.47
33.75
39.72
46.43
52.86
57.46
58.88
56.82
52.25
46.97
42.70
40.40
39.94
40.49
41.09
40.91
39.11
34.59
26.01
12.48
-5.32
-24.63
-41.27
-51.61
-54.57
-52.62
-50.73
-53.96
-65.01
-83.32
-106.13
-130.59
-155.36
-180.78
-207.40
-234.56
-259.97
-280.85
-295.53
-304.51
-309.84
-313.39
-315.47
-314.35
-307.32
-292.41
-269.62
-241.06
-209.72
-177.77
-145.26
-110.39
-71.02
-26.65
20.41
65.51
103.52
130.92
146.84
153.31
154.19
153.68
154.91
158.76
163.43
165.02
159.23
143.54
118.83
89.18
59.48
32.28
5.62
-26.33
-69.74
-126.68
-193.07
-259.75
-316.37
-355.76
-376.08
-379.92
-371.51
-354.30
-329.69
-297.97
-260.24
-219.15
-178.51
-141.87
-111.46
-87.54
-68.73
-52.92
-38.17
-23.50
-9.11
3.60
12.59
16.13
13.88
7.63
0.86
-2.60
-0.60
5.96
13.57
18.49
19.30
18.15
19.87
28.92
46.52
69.41
91.28
105.48
107.98
98.83
81.20
59.19
35.56
10.87
-15.90
-45.76
-78.19
-110.80
-140.06
-162.89
-177.76
-185.08
-186.32
-182.86
-174.96
-161.86
-142.64
-117.26
-87.04
-54.40
-22.06
8.40
36.81
64.16
91.58
119.10
145.37
167.97
184.46
193.47
195.35
192.03
186.17
180.05
174.65
169.37
162.47
151.84
135.83
113.79
86.11
54.16
20.30
-12.45
-40.39
-59.71
-67.74
-64.18
-52.06
-37.34
-27.37
-28.43
-43.79
-71.99
-107.13
-140.71
-164.65
-174.29
-169.83
-156.01
-139.82
-127.96
-123.49
-124.49
-124.93
-117.57
-96.97
-61.64
-14.50
38.06
86.47
121.97
139.42
139.12
126.42
109.66
97.23
94.53
102.11
112.84
117.78
111.11
92.73
66.58
37.40
8.68
-17.66
-39.63
-59.81
-79.92
-99.41
-116.05
-128.38
-136.56
-140.68
-139.83
-132.10
-124.29
-125.93
-144.65
-182.14
-234.07
-291.96
-345.82
-388.05
-381.87
-312.72
-197.41
-76.10
17.38
74.07
105.24
128.14
147.40
167.36
179.99
176.80
156.24
125.63
95.89
75.08
68.87
75.64
90.73
102.88
103.71
93.09
80.55
80.44
105.11
159.73
239.03
329.75
410.36
461.57
473.49
448.32
396.67
331.42
262.84
196.19
133.12
71.75
11.11
-46.71
-96.56
-132.95
-152.09
-152.54
-135.51
-103.81
-62.22
-15.78
31.46
77.23
120.34
159.62
193.56
219.71
235.10
236.98
224.52
199.91
168.23
135.37
105.81
81.21
60.37
40.07
17.60
-7.12
-31.52
-48.55
-51.49
-38.30
-14.09
13.62
37.85
53.84
59.08
53.51
39.72
21.94
5.38
-4.78
-5.10
4.08
18.50
31.48
36.90
31.87
17.24
-3.13
-24.41
-42.79
-56.97
-67.74
-76.69
-84.56
-90.62
-93.39
-91.76
-86.00
-78.14
-71.62
-69.78
-74.22
-83.73
-94.73
-103.04
-106.04
-103.83
-99.09
-95.52
-95.61
-99.24
-103.71
-105.38
-101.81
-93.28
-82.33
-72.03
-63.64
-55.61
-44.59
-27.85
-5.50
19.34
42.24
60.00
71.88
78.62
80.49
75.91
62.38
39.11
9.41
-19.59
-40.01
-47.35
-42.88
-32.47
-22.86
-17.76
-16.53
-15.90
-13.06
-7.72
-1.89
2.09
3.65
4.24
6.11
10.24
15.41
18.96
18.45
13.34
4.98
-4.23
-12.25
-18.15
-21.52
-21.68
-16.94
-5.11
15.22
43.32
76.01
108.62
136.71
157.53
170.54
176.87
178.25
175.97
170.47
161.20
147.06
126.76
99.46
65.36
26.25
-14.70
-53.61
-87.01
-112.87
-131.03
-142.86
-150.49
-155.99
-160.78
-165.69
-171.08
-177.04
-183.43
-189.72
-194.90
-197.67
-196.86
-191.87
-182.74
-169.74
-152.82
-131.29
-104.14
-71.00
-33.18
6.17
42.87
73.29
95.82
111.17
121.24
127.75
131.19
130.84
125.87
116.46
104.16
91.27
79.75
70.36
62.53
54.87
46.14
35.81
24.27
12.43
1.11
-9.37
-19.34
-29.37
-39.69
-49.78
-58.53
-64.97
-68.91
-71.37
-74.12
-78.92
-86.65
-97.17
-109.67
-123.52
-138.74
-155.68
-174.45
-194.19
-212.90
-227.85
-236.19
-235.99
-226.83
-209.62
-186.14
-158.59
-129.24
-100.07
-72.69
-47.86
-25.78
-6.30
10.89
26.58
41.42
55.93
70.45
84.94
99.59
114.26
128.25
140.50
150.98
159.82
167.14
172.87
176.41
178.58
180.33
181.89
183.06
185.17
188.92
193.64
197.34
196.43
190.51
180.29
166.61
150.94
138.17
132.47
135.31
144.89
155.52
165.59
174.58
181.90
187.79
197.04
213.81
239.28
271.05
302.26
331.68
359.55
385.78
382.50
333.47
243.40
137.20
61.82
19.29
2.85
5.48
13.75
20.25
24.23
26.37
26.80
24.33
14.88
0.43
-15.93
-32.57
-48.40
-60.42
-67.00
-69.00
-69.91
-76.17
-89.23
-108.44
-132.43
-158.31
-180.83
-195.07
-198.25
-190.62
-176.35
-158.50
-140.44
-125.86
-117.45
-116.10
-121.63
-133.27
-150.10
-171.06
-192.96
-211.61
-223.04
-224.42
-215.03
-196.84
-173.85
-150.59
-130.79
-116.55
-110.00
-114.81
-136.10
-177.94
-239.48
-311.99
-379.25
-422.16
-425.81
-385.58
-308.96
-211.93
-112.12
-22.24
52.76
114.14
165.26
207.41
238.73
255.83
256.83
243.51
221.23
196.61
174.76
157.59
143.87
130.97
116.73
100.29
81.98
62.58
42.89
23.54
5.31
-11.03
-25.05
-36.79
-46.48
-53.54
-55.99
-50.80
-35.49
-9.99
22.17
54.75
81.23
97.76
104.39
104.24
100.78
95.21
85.83
69.48
44.19
11.20
-24.99
-58.34
-83.43
-97.14
-98.68
-89.02
-70.17
-44.59
-15.29
14.22
40.38
60.36
72.77
78.27
79.66
81.23
87.35
100.74
121.01
144.38
164.95
177.05
177.47
166.76
148.80
128.92
111.61
98.85
89.82
81.93
72.17
58.27
39.19
15.18
-12.26
-41.20
-69.86
-97.16
-122.62
-145.84
-166.46
-184.16
-198.99
-210.55
-217.93
-220.02
-215.31
-202.11
-179.14
-147.26
-110.06
-74.08
-45.97
-30.53
-29.71
-41.70
-61.34
-81.50
-96.09
-101.34
-96.85
-82.90
-59.63
-28.02
10.45
53.06
95.89
132.99
163.05
180.55
182.29
171.61
155.62
140.35
123.39
101.04
69.93
29.91
-15.91
-61.33
-93.95
-107.86
-103.95
-88.57
-69.49
-53.32
-43.06
-38.69
-37.02
-34.01
-27.82
-18.23
-6.05
8.07
22.90
36.56
46.29
50.18
48.10
41.21
32.38
24.75
20.17
17.49
13.30
3.99
-10.99
-27.51
-38.45
-36.34
-17.38
16.23
56.21
91.42
111.97
113.01
95.75
65.29
27.86
-12.06
-52.38
-92.39
-130.75
-164.83
-191.63
-209.51
-220.31
-229.24
-243.00
-266.77
-302.33
-347.86
-399.33
-452.09
-501.22
-541.28
-565.86
-568.58
-544.98
-494.80
-422.80
-337.48
-248.17
-161.96
-82.76
-11.88
49.65
99.83
136.31
158.09
167.25
168.68
167.86
167.72
167.09
161.43
145.66
117.90
81.36
43.34
11.89
-7.81
-15.52
-15.31
-12.94
-13.16
-17.99
-26.73
-37.13
-47.04
-55.27
-61.50
-65.62
-66.99
-64.35
-56.05
-40.84
-18.48
9.89
41.87
74.39
104.49
130.00
149.95
164.61
174.91
181.84
185.86
186.65
183.38
175.39
163.02
148.00
133.47
123.20
120.49
127.39
144.45
171.20
206.71
249.77
298.18
348.04
393.80
429.64
451.42
458.24
452.23
436.62
413.41
382.13
340.87
288.96
229.26
168.58
115.42
76.47
53.74
44.04
40.96
38.10
31.71
21.65
10.54
1.67
-2.45
-1.09
5.22
15.63
29.70
47.69
70.16
97.27
127.77
158.78
186.30
206.76
218.38
221.83
219.70
214.70
207.93
198.03
181.85
156.52
121.41
78.93
33.48
-10.71
-51.53
-89.36
-125.85
-162.17
-197.87
-230.90
-258.64
-278.81
-289.76
-290.86
-282.46
-266.04
-244.42
-221.36
-201.07
-187.15
-181.80
-185.46
-197.04
-214.24
-233.85
-252.12
-265.04
-269.18
-262.55
-245.43
-220.26
-190.95
-161.56
-135.04
-112.59
-93.66
-76.55
-59.11
-39.41
-16.25
10.80
41.37
74.18
107.00
136.74
160.00
173.96
177.27
170.53
156.39
138.71
121.50
107.82
99.21
95.62
95.91
98.53
102.11
105.68
108.74
110.87
111.64
110.43
106.62
99.85
90.16
78.09
64.72
51.55
40.44
33.04
30.14
31.20
34.30
36.83
36.51
32.42
25.08
16.02
6.72
-2.08
-10.51
-19.11
-28.09
-36.95
-44.65
-50.15
-52.95
-53.26
-51.66
-48.83
-45.00
-39.93
-32.90
-23.10
-10.25
4.87
20.25
33.09
40.73
41.75
36.53
26.97
15.64
4.63
-5.14
-13.88
-22.29
-30.75
-38.86
-45.65
-50.22
-52.27
-52.34
-51.36
-50.22
-49.25
-48.29
-46.85
-44.63
-41.77
-38.81
-36.50
-35.32
-35.41
-36.43
-37.86
-39.23
-40.27
-41.05
-41.78
-42.76
-44.11
-45.75
-47.46
-48.89
-49.78
-49.94
-49.38
-48.27
-46.95
-45.86
-45.37
-45.57
-46.08
-46.07
-44.38
-39.97
-32.26
-21.41
-8.31
5.75
19.43
31.73
41.99
50.02
55.76
59.36
61.04
61.13
60.12
58.51
56.84
55.55
54.96
55.21
56.30
58.15
60.65
63.70
67.15
70.80
74.32
77.27
79.19
79.67
78.61
76.06
72.30
67.64
62.42
56.93
51.46
46.20
41.19
36.25
30.96
24.87
17.71
9.49
0.62
-8.36
-16.98
-25.05
-32.77
-40.66
-49.41
-59.61
-71.56
-85.00
-99.07
-112.41
-123.42
-130.69
-133.41
-131.45
-125.33
-116.13
-105.14
-93.70
-83.06
-74.14
-67.43
-62.88
-60.00
-58.18
-57.15
-57.15
-58.82
-62.78
-69.00
-76.48
-83.67
-88.83
-90.83
-89.52
-85.54
-79.82
-72.96
-64.98
-55.52
-44.29
-31.21
-16.31
0.86
21.59
47.87
81.41
122.48
169.06
216.97
261.07
296.68
320.83
332.72
333.29
324.44
308.42
287.42
263.53
238.67
214.28
191.05
168.93
147.02
123.99
98.62
70.19
38.95
6.30
-25.44
-53.54
-75.76
-91.10
-100.13
-104.66
-106.94
-108.83
-111.27
-114.31
-117.52
-120.40
-122.62
-123.98
-124.40
-123.95
-122.95
-122.03
-121.79
-122.50
-123.77
-124.66
-124.10
-121.52
-117.24
-112.37
-108.14
-105.38
-104.08
-103.78
-103.99
-104.73
-106.54
-110.08
-115.44
-121.76
-127.40
-130.55
-130.06
-125.96
-119.58
-113.22
-109.44
-110.32
-116.51
-126.84
-138.53
-148.21
-153.20
-152.34
-145.98
-135.28
-121.42
-105.38
-88.23
-71.46
-56.57
-44.29
-33.70
-22.47
-8.22
9.72
29.40
47.19
59.97
67.16
70.94
74.74
80.88
89.34
98.22
105.34
109.74
111.86
112.82
113.70
115.39
118.97
125.63
135.76
148.20
159.93
167.31
168.32
164.07
158.70
156.90
161.31
170.87
181.47
188.14
187.47
178.94
164.48
147.30
130.51
116.47
106.46
100.83
99.22
100.93
105.12
110.64
115.39
115.72
106.89
84.81
48.51
1.89
-46.58
-86.69
-110.45
-114.96
-103.10
-81.50
-57.37
-36.14
-20.55
-11.57
-9.54
-14.81
-27.00
-43.86
-60.78
-71.88
-72.39
-61.02
-40.70
-17.22
3.48
18.03
26.63
31.90
36.49
40.94
43.38
40.89
31.68
16.49
-1.45
-18.00
-29.85
-35.72
-36.33
-33.48
-29.06
-24.28
-19.49
-14.31
-8.05
-0.22
9.31
20.26
32.11
44.37
56.73
69.12
81.54
93.86
105.81
117.02
127.05
135.41
141.41
144.10
142.66
136.82
127.33
115.84
104.20
93.04
80.68
63.04
35.23
-5.52
-58.24
-117.78
-176.48
-226.82
-263.62
-284.97
-291.62
-285.57
-268.60
-242.51
-209.88
-174.76
-141.89
-114.96
-94.74
-78.68
-61.91
-39.53
-9.68
25.30
59.53
86.22
100.87
103.06
95.77
83.35
69.72
56.96
45.90
37.35
33.18
36.19
48.88
71.08
93.87
105.66
97.75
70.79
34.04
-1.25
-28.49
-46.65
-62.78
-84.08
-113.76
-150.07
-187.11
-217.95
-233.99
-230.28
-206.59
-167.16
-118.38
-66.50
-16.53
27.72
62.56
83.87
87.64
72.24
40.26
-0.41
-38.37
-62.67
-67.11
-52.98
-28.46
-5.32
6.25
0.86
-20.87
-54.04
-92.22
-129.40
-160.90
-183.41
-194.74
-193.81
-181.04
-158.42
-129.03
-95.80
-60.60
-23.94
14.40
54.01
92.99
128.07
155.89
174.67
185.57
192.43
200.22
212.44
228.90
245.32
254.90
251.04
229.91
191.79
140.95
84.30
29.76
-15.17
-44.49
-54.81
-46.06
-21.95
10.65
43.30
68.56
82.20
84.29
78.65
70.55
64.35
61.94
62.95
66.37
72.43
83.13
101.21
127.57
159.06
188.25
205.42
201.88
173.03
120.04
49.67
-27.71
-100.93
-160.92
-202.85
-226.79
-236.94
-239.52
-240.35
-243.13
-248.71
-255.32
-259.69
-257.80
-245.53
-219.05
-175.57
-114.61
-39.05
44.56
126.81
197.61
248.60
274.90
276.18
256.26
221.63
179.55
136.36
96.33
61.45
32.02
7.50
-12.64
-28.45
-39.61
-45.83
-47.47
-46.49
-46.85
-53.60
-71.14
-100.63
-138.10
-174.48
-198.19
-199.11
-172.14
-118.68
-45.47
37.83
121.24
195.99
255.06
293.25
307.93
299.70
272.74
233.84
190.21
146.63
103.89
59.16
8.43
-50.14
-113.32
-172.42
-215.74
-233.82
-224.38
-194.95
-161.07
-140.55
-146.68
-183.89
-247.64
-327.89
-413.60
-495.51
-566.34
-619.62
-648.98
-649.34
-619.29
-562.73
-488.44
-407.65
-330.61
-264.03
-210.41
-168.79
-135.97
-107.89
-80.36
-49.57
-12.46
33.05
87.57
149.52
214.43
274.40
318.95
337.20
321.69
271.77
195.36
107.00
23.44
-41.91
-82.43
-98.86
-96.34
-80.54
-55.30
-22.77
14.44
51.48
81.58
98.26
98.53
84.66
63.81
45.22
36.87
42.89
62.78
92.31
125.40
156.27
180.64
196.39
203.13
201.71
193.45
179.65
161.60
140.98
120.51
103.78
94.32
94.02
102.07
114.57
125.55
129.36
123.06
107.90
88.85
72.26
63.04
62.46
68.14
75.81
81.81
84.80
85.85
87.11
90.07
94.73
99.81
103.82
106.19
107.90
111.11
118.19
130.69
148.46
169.49
190.17
206.19
213.60
209.83
194.10
167.39
131.86
90.23
45.14
-0.97
-45.78
-86.63
-120.64
-144.94
-157.35
-157.13
-145.45
-124.94
-98.82
-69.76
-39.23
-7.49
25.73
60.48
96.26
131.77
165.18
193.96
214.73
223.35
215.63
188.82
143.11
82.51
14.11
-53.87
-114.52
-163.50
-198.74
-219.00
-222.79
-208.81
-177.65
-133.64
-84.92
-41.27
-10.35
5.38
9.37
8.73
10.38
17.94
30.69
45.08
57.43
65.84
70.62
73.04
74.06
73.51
70.36
63.67
53.56
41.60
30.16
21.20
15.18
10.58
4.54
-5.88
-22.25
-44.08
-68.96
-93.48
-114.22
-128.52
-134.65
-131.73
-119.81
-100.27
-76.13
-52.19
-34.27
-27.86
-36.59
-61.22
-99.63
-147.94
-202.09
-259.10
-316.85
-372.82
-422.33
-457.82
-470.05
-451.00
-397.53
-313.84
-211.55
-107.01
-16.56
48.30
83.98
95.23
92.60
88.22
91.69
107.41
134.45
168.20
202.70
232.19
251.80
257.69
247.53
221.61
183.73
140.76
100.68
69.76
50.43
41.09
37.83
36.84
36.08
35.39
35.35
35.89
35.75
33.14
26.80
16.65
3.71
-10.59
-25.27
-40.09
-55.38
-71.38
-87.41
-101.69
-111.73
-115.32
-111.18
-99.39
-81.00
-57.37
-29.68
0.93
32.80
63.24
88.73
105.99
113.35
111.53
103.48
93.16
84.06
78.06
75.39
75.14
76.09
76.98
76.56
73.33
65.74
52.66
33.94
10.86
-14.11
-38.05
-58.35
-73.41
-82.73
-86.86
-86.92
-84.32
-80.45
-76.54
-73.64
-72.60
-74.03
-78.21
-84.80
-92.81
-100.79
-107.23
-111.29
-113.07
-113.48
-113.58
-113.76
-113.24
-110.25
-102.82
-89.72
-71.18
-49.10
-26.47
-6.63
7.71
14.99
15.18
9.62
0.51
-9.94
-20.19
-29.67
-38.55
-46.94
-54.35
-59.57
-61.23
-58.50
-51.67
-42.30
-32.72
-25.51
-22.97
-26.85
-37.96
-55.74
-77.86
-100.30
-118.15
-127.20
-125.22
-112.50
-91.16
-63.92
-33.00
0.05
33.81
66.28
94.85
117.05
131.64
139.26
142.09
142.94
143.85
145.55
147.60
149.12
149.44
148.50
146.66
144.34
141.76
138.71
134.67
129.00
121.24
111.36
99.83
87.54
75.46
64.26
54.16
45.06
36.82
29.53
23.57
19.38
17.25
17.07
18.41
20.55
22.68
24.11
24.36
23.28
20.98
17.88
14.46
11.16
8.32
6.24
5.23
5.52
7.02
9.19
11.27
12.73
13.82
15.59
19.29
25.56
33.92
42.99
51.30
58.09
63.57
68.45
73.30
78.00
81.80
83.91
84.09
82.77
80.72
78.54
76.47
74.53
72.81
71.77
72.01
73.91
77.12
80.54
82.45
81.10
75.19
64.28
48.95
30.65
11.48
-6.46
-21.49
-32.81
-40.68
-46.24
-51.03
-56.40
-63.05
-70.96
-79.42
-87.46
-94.25
-99.52
-103.84
-108.49
-114.97
-124.10
-135.52
-147.43
-157.37
-163.31
-164.63
-162.38
-158.42
-154.35
-150.56
-146.46
-141.37
-135.51
-130.30
-127.64
-128.39
-131.47
-133.95
-132.20
-123.57
-107.63
-86.28
-62.93
-40.90
-22.15
-6.85
6.07
17.93
29.70
41.85
54.77
69.03
85.39
104.11
124.38
144.06
160.24
170.46
173.75
171.13
165.14
158.76
154.31
152.79
154.00
156.79
159.49
160.30
157.63
150.62
139.62
126.39
113.80
105.07
102.67
107.42
118.11
132.00
145.75
156.58
163.10
165.67
166.09
166.69
169.14
173.53
177.93
178.80
172.34
156.20
130.62
98.53
64.63
33.64
8.89
-8.38
-19.14
-26.17
-33.41
-45.02
-64.07
-91.44
-125.19
-161.16
-194.39
-221.14
-240.04
-252.09
-259.75
-265.45
-270.65
-275.57
-279.49
-281.29
-279.90
-274.59
-265.26
-252.46
-237.12
-220.03
-201.23
-179.75
-153.87
-121.88
-82.94
-37.72
11.45
61.35
108.70
151.15
187.61
218.09
243.05
262.63
276.26
282.94
282.03
273.90
260.23
243.43
225.69
208.31
191.56
175.01
158.01
140.04
120.55
99.20
75.90
51.13
26.04
2.22
-18.62
-34.99
-45.96
-51.17
-51.03
-46.99
-41.65
-38.31
-39.99
-48.28
-62.66
-80.88
-100.03
-118.01
-134.26
-149.36
-163.75
-176.46
-184.91
-185.81
-176.90
-158.40
-133.38
-106.63
-82.66
-63.81
-49.37
-36.46
-21.88
-4.32
14.56
30.50
38.74
36.44
24.21
5.98
-12.69
-26.98
-34.29
-34.44
-28.69
-18.41
-4.54
11.80
28.49
41.69
46.26
37.42
12.65
-26.84
-76.30
-129.22
-180.16
-226.80
-270.38
-313.71
-358.21
-401.49
-436.93
-455.97
-451.61
-421.47
-368.96
-302.35
-232.23
-168.66
-118.91
-86.03
-68.52
-60.87
-55.07
-42.77
-17.64
22.99
77.70
141.53
207.39
267.10
312.19
335.20
331.39
300.99
250.41
191.29
137.14
98.98
81.64
82.92
95.63
111.18
123.04
128.21
126.75
120.22
110.23
97.89
83.96
69.23
54.37
39.69
24.94
9.48
-7.18
-25.00
-43.36
-61.28
-77.53
-90.77
-99.43
-101.89
-96.99
-84.67
-66.46
-45.07
-23.46
-3.70
13.51
28.62
42.13
53.73
61.87
64.35
59.66
47.99
31.66
14.54
0.63
-7.41
-9.15
-6.43
-2.47
-0.48
-2.40
-8.19
-15.83
-22.12
-23.85
-19.03
-7.60
8.58
26.35
42.30
53.81
59.47
59.17
53.66
44.28
32.88
21.73
13.44
10.36
13.72
22.83
35.02
46.56
54.23
56.69
55.00
51.78
49.70
50.13
52.78
56.22
58.94
60.01
59.17
56.56
52.45
47.28
41.72
36.68
32.73
29.40
24.84
16.46
2.34
-17.36
-40.04
-61.67
-78.67
-89.52
-95.22
-98.19
-100.54
-102.74
-103.60
-101.35
-95.13
-85.68
-75.04
-65.44
-58.15
-53.01
-48.98
-45.00
-40.68
-36.33
-32.47
-29.23
-26.30
-23.26
-20.18
-17.73
-16.87
-17.90
-19.85
-20.51
-17.37
-8.99
3.98
18.94
32.50
42.28
48.20
52.49
58.49
68.64
83.17
99.90
115.40
126.74
132.79
134.44
133.56
131.60
128.65
123.53
114.92
102.64
88.31
75.00
65.85
62.59
64.61
68.98
71.45
67.86
55.60
34.46
6.67
-23.70
-51.99
-74.26
-88.38
-94.43
-94.37
-91.18
-87.62
-85.40
-84.92
-85.61
-86.46
-86.33
-83.99
-78.04
-66.93
-49.46
-25.44
3.82
35.50
66.01
92.17
112.24
126.29
135.90
143.26
150.46
158.88
168.89
179.83
190.02
197.07
198.45
192.25
177.74
155.51
127.12
94.33
58.52
20.44
-19.26
-59.52
-98.43
-133.58
-162.59
-184.03
-197.70
-204.28
-204.81
-200.53
-193.29
-186.33
-184.45
-192.52
-212.98
-243.28
-275.31
-297.68
-300.27
-278.43
-235.00
-178.57
-119.32
-64.75
-17.75
22.64
58.49
90.56
117.58
137.22
147.82
149.63
144.86
136.76
128.48
122.06
118.24
116.52
115.74
114.62
112.44
109.34
106.44
105.58
108.50
116.19
128.12
142.07
154.45
161.34
159.55
147.74
126.87
100.14
72.24
48.29
32.55
27.11
31.10
40.52
49.27
51.05
41.55
20.07
-10.30
-43.97
-75.03
-99.18
-114.49
-121.05
-120.07
-113.44
-103.79
-94.83
-90.99
-96.28
-112.47
-137.60
-166.17
-190.92
-205.62
-207.30
-196.89
-177.79
-153.46
-125.60
-93.94
-57.76
-17.85
22.49
58.24
84.80
99.98
104.83
102.62
96.98
90.17
82.83
74.92
66.89
59.95
55.27
52.80
50.53
45.09
33.41
14.51
-9.82
-35.55
-58.06
-73.74
-80.92
-79.80
-71.73
-58.65
-42.73
-26.34
-11.96
-1.78
2.96
2.60
-0.93
-4.60
-5.34
-1.27
7.74
20.19
33.81
46.66
57.78
67.35
76.19
85.18
94.75
104.66
114.25
122.69
129.30
133.57
134.90
132.34
124.60
110.52
89.83
63.96
35.92
9.33
-13.23
-31.75
-48.95
-68.89
-94.54
-125.85
-159.34
-189.86
-213.18
-228.34
-238.04
-246.79
-257.95
-271.16
-281.96
-283.89
-272.01
-245.80
-209.96
-172.48
-141.22
-120.75
-111.22
-109.22
-110.12
-110.08
-106.89
-99.43
-86.91
-68.64
-44.95
-18.22
7.17
26.07
34.59
31.83
20.29
4.84
-8.97
-16.58
-15.23
-4.05
16.16
43.29
74.11
104.80
131.68
152.25
165.78
173.39
177.25
179.35
180.67
180.84
178.55
172.33
161.27
145.41
125.94
104.97
85.13
68.99
58.34
53.65
53.81
56.51
58.99
59.03
55.73
49.67
42.46
36.03
31.82
30.37
31.46
34.40
38.52
43.39
48.78
54.48
60.09
64.86
68.00
68.86
67.38
64.27
60.88
58.75
59.06
62.16
67.43
73.54
79.01
82.74
84.18
83.33
80.33
75.36
68.64
60.70
52.59
46.00
42.73
44.07
50.12
59.50
69.60
77.30
79.76
75.24
63.39
45.29
23.00
-0.77
-23.12
-41.31
-53.12
-57.30
-54.03
-45.17
-34.07
-24.78
-20.87
-24.32
-34.87
-50.20
-66.82
-81.30
-91.34
-96.23
-96.60
-93.83
-89.21
-83.63
-77.41
-70.68
-63.70
-57.13
-51.89
-48.91
-48.61
-50.67
-54.05
-57.24
-58.71
-57.20
-51.88
-42.44
-29.06
-12.39
6.40
25.65
43.47
57.96
67.63
71.60
69.78
62.76
51.65
37.83
22.86
8.24
-4.73
-15.13
-22.49
-26.85
-28.71
-28.90
-28.40
-28.01
-28.08
-28.35
-27.97
-25.70
-20.30
-10.95
2.23
18.09
34.56
49.24
60.18
66.55
68.98
69.24
69.52
71.52
75.83
81.71
87.54
91.55
92.61
90.63
86.61
82.04
78.19
75.40
72.74
68.32
60.16
47.19
29.94
10.48
-8.35
-24.04
-35.38
-42.61
-46.97
-49.78
-51.73
-52.65
-51.85
-48.79
-43.62
-37.27
-31.14
-26.55
-24.42
-25.07
-28.36
-33.94
-41.49
-50.84
-62.03
-75.24
-90.55
-107.56
-125.19
-141.63
-154.80
-163.09
-166.11
-164.94
-161.80
-159.44
-160.42
-166.60
-178.77
-195.99
-215.06
-230.49
-235.53
-224.39
-194.65
-148.83
-93.83
-38.48
9.75
47.23
74.47
94.50
110.35
123.21
132.16
135.47
132.18
123.21
111.10
98.93
88.89
81.48
75.67
69.85
62.86
54.65
46.13
38.41
31.92
26.10
19.69
11.54
1.35
-10.11
-21.45
-31.34
-39.15
-45.12
-50.01
-54.50
-58.72
-62.19
-64.20
-64.25
-62.26
-58.43
-52.91
-45.55
-36.16
-24.86
-12.35
0.19
11.54
20.90
28.14
33.48
37.17
39.15
39.34
38.14
36.88
37.62
42.39
52.16
66.25
82.50
98.01
110.15
117.29
119.00
115.95
109.53
101.66
94.43
89.86
89.33
93.17
100.40
108.96
116.25
119.96
118.62
111.78
99.84
83.66
64.37
43.22
21.66
1.24
-16.64
-31.02
-41.68
-48.98
-53.58
-56.06
-56.62
-55.21
-51.73
-46.31
-39.45
-31.97
-24.77
-18.56
-13.76
-10.44
-8.55
-7.97
-8.59
-10.25
-12.64
-15.37
-18.03
-20.51
-23.08
-26.33
-30.90
-37.14
-44.83
-53.15
-60.75
-66.17
-68.11
-65.80
-59.36
-49.81
-39.01
-29.11
-21.85
-18.08
-17.41
-18.42
-19.03
-17.28
-11.84
-2.47
9.94
23.59
36.49
47.28
55.77
63.20
71.63
83.05
98.48
117.44
137.92
156.86
170.90
177.15
174.08
162.11
143.51
121.46
98.59
75.65
51.45
24.02
-7.56
-41.72
-74.48
-100.90
-117.01
-121.03
-113.41
-95.79
-70.24
-39.05
-5.23
27.22
53.87
71.24
78.18
76.35
69.39
61.25
54.39
48.79
42.18
31.19
12.94
-13.57
-46.86
-83.31
-118.42
-148.36
-171.11
-186.69
-196.33
-201.28
-201.94
-197.92
-188.88
-175.43
-159.37
-143.10
-128.37
-115.45
-103.05
-89.32
-73.01
-54.51
-35.85
-19.83
-8.76
-3.56
-3.50
-6.67
-10.89
-14.46
-16.55
-17.11
-16.42
-14.71
-12.00
-8.10
-2.87
3.44
10.19
16.37
20.90
23.03
22.55
19.97
16.20
12.25
8.84
6.14
3.80
1.24
-2.04
-6.22
-11.15
-16.45
-21.61
-26.04
-29.02
-29.80
-27.91
-23.46
-17.48
-11.68
-7.91
-7.25
-9.44
-12.74
-14.69
-13.16
-7.31
2.12
13.20
23.76
32.23
38.05
41.52
43.36
44.25
44.50
44.15
43.17
41.55
39.44
37.08
34.73
32.62
30.90
29.62
28.75
28.21
28.05
28.35
29.23
30.70
32.50
34.07
34.82
34.32
32.49
29.61
26.07
22.06
17.51
12.14
5.74
-1.52
-9.03
-15.88
-21.29
-24.89
-26.93
-28.18
-29.57
-31.94
-35.69
-40.74
-46.56
-52.24
-56.72
-58.89
-57.90
-53.36
-45.49
-35.17
-23.81
-12.98
-3.99
2.37
5.97
7.21
6.76
5.28
3.25
1.01
-1.25
-3.32
-5.03
-6.23
-6.82
-6.68
-5.72
-3.86
-1.08
2.36
5.97
9.05
11.01
11.53
10.82
9.40
7.90
6.81
6.36
6.48
6.96
7.64
8.45
9.40
10.51
11.70
12.74
13.36
13.27
12.37
10.73
8.59
6.23
3.93
1.92
0.33
-0.62
-0.65
0.65
3.65
8.54
15.15
22.89
30.74
37.55
42.21
44.10
43.24
40.32
36.41
32.62
29.80
28.37
28.30
29.28
30.73
31.97
32.29
31.17
28.42
24.35
19.75
15.60
12.74
11.56
11.96
13.42
15.23
16.79
17.69
17.77
17.06
15.76
14.18
12.57
11.08
9.64
8.03
5.93
3.12
-0.40
-4.47
-8.73
-12.88
-16.72
-20.22
-23.51
-26.81
-30.34
-34.17
-38.15
-41.83
-44.56
-45.58
-44.39
-40.84
-35.26
-28.33
-20.87
-13.55
-6.85
-0.93
4.25
8.78
12.78
16.29
19.37
22.07
24.44
26.50
28.23
29.57
30.50
31.07
31.40
31.61
31.74
31.60
30.83
29.04
25.98
21.73
16.64
11.21
5.87
0.85
-3.87
-8.34
-12.56
-16.33
-19.32
-21.30
-22.29
-22.71
-23.20
-24.52
-27.11
-31.03
-35.91
-41.12
-46.05
-50.35
-53.93
-56.86
-59.13
-60.43
-60.28
-58.18
-53.91
-47.70
-40.18
-32.18
-24.41
-17.35
-11.23
-6.11
-2.02
1.07
3.18
4.44
5.05
5.20
5.02
4.62
4.13
3.67
3.47
3.72
4.61
6.29
8.79
12.03
15.71
19.37
22.54
24.95
26.65
27.97
29.29
30.81
32.39
33.69
34.37
34.33
33.80
33.16
32.74
32.62
32.57
32.10
30.60
27.47
22.25
14.81
5.40
-5.27
-16.20
-26.22
-34.29
-39.66
-41.91
-41.02
-37.24
-31.10
-23.32
-14.79
-6.42
0.95
6.71
10.64
12.86
13.81
14.08
14.20
14.44
14.80
15.10
15.22
15.35
15.89
17.32
19.84
23.17
26.62
29.43
31.15
31.84
32.07
32.41
33.16
34.13
34.76
34.55
33.40
31.66
30.07
29.37
29.95
31.76
34.31
36.88
38.81
39.69
39.41
38.04
35.70
32.31
27.59
21.18
12.88
2.94
-7.85
-18.28
-26.98
-32.86
-35.41
-34.79
-31.70
-27.09
-21.83
-16.46
-11.23
-6.16
-1.35
2.85
5.93
7.43
7.16
5.31
2.30
-1.53
-6.08
-11.48
-17.85
-25.17
-33.22
-41.70
-50.30
-58.69
-66.24
-71.96
-74.65
-73.40
-68.15
-59.97
-50.85
-42.87
-37.42
-34.69
-33.75
-32.96
-30.70
-25.87
-18.28
-8.54
2.30
13.43
24.86
37.45
52.50
70.88
92.25
114.87
136.23
154.15
167.72
177.64
185.47
192.62
199.39
204.91
207.56
205.87
199.17
187.91
173.58
158.34
144.50
133.88
127.20
123.71
121.07
115.80
104.24
83.68
53.39
14.97
-27.95
-70.75
-109.03
-139.70
-161.51
-174.85
-180.89
-180.60
-174.18
-161.25
-141.57
-116.05
-87.14
-58.30
-32.97
-13.30
0.37
9.18
14.81
18.35
19.83
18.67
14.58
8.19
1.04
-5.20
-9.60
-12.31
-14.14
-15.84
-17.46
-18.34
-17.71
-15.29
-11.38
-6.53
-0.74
6.71
16.66
29.31
43.51
56.72
65.92
68.90
65.26
56.67
46.02
36.06
28.44
23.28
19.47
15.65
11.12
6.41
2.93
1.98
3.16
4.49
3.20
-2.85
-13.80
-27.45
-39.94
-47.43
-47.76
-42.65
-35.75
-30.94
-30.80
-36.21
-46.66
-60.68
-76.29
-91.63
-107.99
-126.86
-148.74
-172.63
-196.55
-218.52
-236.86
-250.43
-258.91
-266.91
-278.32
-293.93
-310.70
-323.81
-329.79
-327.83
-319.91
-309.76
-306.36
-315.49
-336.83
-364.44
-390.58
-410.07
-421.25
-424.74
-389.83
-301.95
-168.81
-18.53
118.45
224.73
297.21
341.74
367.41
382.10
385.11
373.76
347.02
306.65
259.33
212.56
173.31
146.97
136.17
136.47
141.88
147.75
152.44
156.49
160.37
163.77
166.70
167.56
162.29
148.25
125.55
97.14
67.20
38.98
14.38
-5.84
-21.70
-34.60
-45.85
-56.35
-66.53
-76.47
-86.15
-94.92
-101.27
-103.46
-100.66
-93.09
-81.81
-67.94
-52.14
-34.82
-16.57
1.31
16.68
27.51
32.90
33.56
31.26
27.43
21.91
13.01
-1.35
-22.07
-47.85
-75.45
-100.87
-120.63
-132.79
-137.17
-135.15
-128.95
-120.74
-111.94
-102.98
-93.64
-83.66
-73.26
-63.23
-54.36
-46.70
-39.12
-29.71
-17.00
-0.94
16.83
33.77
47.59
57.26
63.06
66.08
67.49
67.99
67.78
66.88
65.55
64.25
63.50
63.46
63.73
63.75
63.36
63.33
65.25
70.85
80.93
94.98
111.43
128.59
145.45
161.77
177.52
192.25
204.79
213.70
218.08
218.28
215.94
213.50
213.37
217.27
225.81
238.31
252.95
266.91
277.02
280.39
275.15
260.83
238.03
207.89
171.65
130.49
85.75
39.06
-7.69
-52.58
-94.05
-131.20
-163.82
-192.05
-215.95
-235.24
-249.16
-256.76
-257.13
-249.80
-234.92
-213.28
-186.19
-155.29
-122.28
-88.86
-56.69
-27.28
-1.96
18.15
32.14
39.39
39.46
32.27
18.24
-1.47
-24.82
-49.23
-72.17
-91.88
-107.68
-119.94
-129.40
-136.46
-140.92
-142.18
-139.95
-134.83
-128.20
-121.47
-115.39
-109.51
-102.39
-92.26
-77.90
-59.27
-37.40
-13.74
10.86
35.90
60.96
85.16
106.96
124.37
135.61
139.85
137.40
130.23
120.22
108.30
94.34
78.18
60.72
44.33
32.27
27.32
31.84
46.04
67.98
94.56
122.66
149.69
173.33
191.47
201.99
205.19
202.29
194.64
182.97
167.29
147.45
123.70
97.54
62.82
19.73
-25.99
-66.03
-94.83
-112.47
-122.99
-130.60
-135.48
-137.12
-132.20
-118.02
-94.75
-65.58
-35.08
-6.98
14.89
28.96
34.73
30.52
17.16
-1.56
-19.78
-32.25
-36.51
-33.45
-25.77
-16.69
-6.94
3.39
13.33
20.71
22.57
16.44
1.41
-21.22
-48.82
-76.49
-98.61
-110.66
-110.46
-98.87
-79.51
-57.71
-38.59
-25.59
-19.17
-17.22
-16.63
-14.98
-11.62
-7.55
-4.55
-3.72
-4.89
-6.92
-8.73
-10.24
-12.62
-17.53
-26.01
-37.91
-51.47
-63.87
-72.47
-76.00
-74.97
-71.41
-67.86
-66.45
-68.50
-73.86
-80.95
-87.52
-91.44
-91.15
-85.93
-75.76
-61.46
-45.24
-29.72
-17.05
-8.10
-2.23
2.82
9.91
21.34
40.33
65.07
89.07
104.96
109.18
103.27
91.67
78.23
64.63
50.58
34.56
16.02
-3.70
-21.99
-37.64
-48.21
-51.99
-48.21
-37.32
-21.54
-4.04
12.27
25.68
36.10
44.82
53.31
62.38
71.80
80.46
87.06
91.06
92.67
92.08
89.00
82.56
72.04
57.61
40.31
21.48
1.97
-18.62
-41.99
-70.23
-104.83
-145.50
-189.72
-233.10
-270.44
-297.02
-310.02
-309.31
-297.31
-278.07
-255.77
-233.44
-212.16
-191.36
-169.61
-145.66
-119.20
-91.16
-63.41
-38.02
-16.52
0.48
13.18
22.31
28.65
32.82
35.41
37.31
39.72
43.79
50.07
58.12
66.69
74.26
79.90
83.66
86.62
90.21
95.49
102.57
110.49
117.69
122.72
124.94
124.65
122.59
119.40
115.10
109.20
101.28
91.65
81.37
71.67
63.05
54.73
45.20
33.26
19.10
4.46
-8.30
-17.68
-23.94
-28.93
-34.69
-41.96
-49.37
-54.00
-52.98
-44.92
-30.69
-12.80
5.69
22.23
35.17
43.78
47.98
48.35
45.96
42.26
38.68
36.01
34.14
32.20
29.28
25.21
20.95
18.02
17.78
20.50
25.13
30.02
33.83
36.33
38.38
41.20
45.42
50.37
54.40
55.55
52.82
46.65
38.92
32.05
27.96
27.26
28.94
30.84
30.43
25.87
16.79
4.33
-9.57
-23.40
-37.07
-52.05
-70.34
-93.13
-119.95
-148.98
-178.01
-205.42
-230.34
-252.16
-269.82
-281.52
-285.36
-280.20
-266.39
-245.93
-221.54
-195.61
-169.32
-142.46
-114.00
-83.10
-50.18
-17.43
11.54
33.20
45.91
51.15
53.36
57.81
68.09
84.62
104.84
125.45
144.68
163.21
183.37
206.96
233.33
258.70
277.46
284.36
276.75
255.70
225.49
191.82
159.94
132.99
111.72
95.34
82.72
73.31
67.33
65.23
67.00
71.77
77.97
84.10
89.47
94.47
100.33
108.21
118.58
130.97
144.00
156.01
165.43
171.19
172.83
170.51
164.87
156.78
147.05
136.05
123.55
108.86
91.35
71.04
49.02
27.42
8.68
-5.24
-13.76
-17.67
-18.78
-19.01
-19.69
-21.23
-23.35
-25.61
-27.86
-30.46
-34.08
-39.30
-46.26
-54.49
-63.12
-71.15
-77.92
-83.22
-87.35
-90.80
-94.06
-97.44
-101.08
-105.03
-109.24
-113.57
-117.60
-120.58
-121.48
-119.17
-112.84
-102.39
-88.69
-73.47
-59.01
-47.37
-39.95
-37.17
-38.57
-43.30
-50.43
-59.18
-68.92
-79.08
-88.98
-97.96
-105.44
-111.03
-114.40
-115.25
-113.41
-108.95
-102.34
-94.43
-86.41
-79.37
-73.98
-70.49
-68.87
-68.88
-69.95
-71.09
-70.73
-67.09
-58.69
-44.81
-25.83
-3.03
21.79
46.71
69.95
89.93
105.26
114.92
118.40
115.94
108.48
97.53
84.56
70.54
56.00
41.31
27.13
14.69
5.75
2.26
5.52
15.52
30.71
48.28
64.90
77.60
84.63
85.71
81.91
75.11
67.15
59.43
52.48
46.10
39.71
32.78
25.16
17.19
9.68
3.58
-0.27
-1.53
-0.54
1.77
4.09
5.15
4.13
0.86
-4.08
-9.45
-13.78
-15.88
-15.47
-13.30
-10.97
-10.07
-11.38
-14.45
-17.92
-20.20
-20.36
-18.52
-15.79
-13.77
-14.06
-18.00
-26.35
-39.09
-54.90
-71.25
-84.45
-90.61
-87.17
-73.74
-52.55
-27.50
-2.95
17.73
32.59
41.17
43.98
41.80
35.72
26.99
17.34
8.67
2.62
-0.57
-2.42
-6.03
-14.56
-29.24
-48.10
-66.41
-78.79
-81.96
-76.63
-66.99
-58.43
-54.58
-55.13
-56.79
-55.53
-49.43
-40.20
-31.89
-28.68
-32.38
-41.82
-53.81
-65.32
-74.71
-82.01
-88.25
-94.01
-99.39
-104.11
-108.36
-112.76
-117.84
-122.86
-125.43
-122.29
-111.08
-92.19
-69.19
-47.31
-30.73
-20.40
-13.59
-5.67
6.87
24.15
42.62
56.93
62.99
60.38
52.91
47.26
50.52
67.80
100.61
146.34
199.25
251.91
297.25
330.17
348.49
352.78
345.39
329.39
307.72
283.06
257.85
234.39
214.33
198.18
184.87
172.10
157.43
139.22
117.48
93.52
69.37
47.12
28.57
15.06
7.23
4.66
5.69
7.51
7.10
2.31
-7.25
-20.14
-33.91
-46.33
-56.36
-64.46
-72.27
-81.75
-94.31
-110.25
-128.52
-146.75
-161.81
-170.42
-170.06
-159.52
-139.16
-110.68
-76.64
-39.95
-3.56
29.74
57.49
77.87
90.04
94.39
92.38
86.14
77.89
69.44
61.91
55.77
50.94
47.07
43.63
40.03
35.74
30.30
23.40
14.83
4.49
-7.69
-21.71
-37.35
-54.12
-71.30
-88.09
-103.71
-117.34
-127.89
-133.92
-133.78
-126.25
-111.18
-90.08
-66.01
-42.79
-23.75
-10.75
-3.72
-1.22
-1.27
-2.32
-3.74
-5.67
-8.56
-12.65
-17.61
-22.54
-26.28
-27.69
-25.96
-20.83
-12.68
-2.48
8.30
18.09
25.52
29.90
31.39
31.00
30.30
30.88
33.90
39.59
47.25
55.48
62.66
67.50
69.38
68.47
65.54
61.60
57.52
53.85
50.67
47.64
44.07
39.10
31.95
22.15
9.85
-4.23
-18.99
-33.26
-46.22
-57.44
-66.86
-74.53
-80.42
-84.38
-86.14
-85.54
-82.50
-77.13
-69.63
-60.47
-50.41
-40.60
-32.34
-26.72
-24.29
-24.87
-27.66
-31.62
-35.81
-39.69
-43.12
-46.18
-49.06
-51.91
-54.73
-57.53
-60.17
-62.44
-63.97
-64.28
-62.91
-59.55
-54.27
-47.43
-39.74
-31.98
-24.84
-18.85
-14.25
-11.08
-9.25
-8.54
-8.74
-9.65
-11.14
-13.16
-15.66
-18.53
-21.52
-24.25
-26.28
-27.29
-27.21
-26.26
-24.92
-23.71
-23.08
-23.26
-24.21
-25.64
-27.05
-27.78
-27.15
-24.66
-20.11
-13.76
-6.27
1.53
8.84
15.16
20.30
24.34
27.48
29.83
31.36
31.92
31.36
29.55
26.59
22.76
18.51
14.38
10.83
8.17
6.48
5.63
5.35
5.37
5.45
5.48
5.41
5.22
4.94
4.49
3.78
2.74
1.36
-0.30
-2.11
-4.01
-6.03
-8.32
-11.03
-14.18
-17.55
-20.74
-23.35
-25.15
-26.28
-27.17
-28.25
-29.76
-31.49
-32.83
-32.98
-31.32
-27.59
-22.02
-15.23
-7.99
-1.01
5.18
10.30
14.26
17.08
18.84
19.70
19.81
19.32
18.33
16.95
15.29
13.57
12.05
11.05
10.79
11.33
12.52
14.04
15.54
16.69
17.29
17.23
16.52
15.23
13.44
11.25
8.77
6.12
3.42
0.80
-1.68
-3.99
-6.18
-8.35
-10.58
-12.98
-15.66
-18.64
-21.86
-24.99
-27.45
-28.48
-27.36
-23.72
-17.76
-10.24
-2.31
4.96
10.87
15.25
18.35
20.52
21.99
22.81
22.90
22.24
20.99
19.42
17.85
16.52
15.62
15.29
15.63
16.63
18.16
19.94
21.67
23.18
24.51
25.88
27.48
29.38
31.38
33.19
34.64
35.72
36.58
37.37
38.12
38.84
39.64
40.75
42.43
44.66
46.85
47.85
46.41
41.59
33.39
22.80
11.46
1.01
-7.54
-14.08
-19.27
-24.04
-29.15
-34.79
-40.65
-46.17
-50.84
-54.43
-56.96
-58.56
-59.23
-58.81
-56.99
-53.45
-48.11
-41.12
-32.88
-23.92
-14.71
-5.68
2.90
10.81
17.84
23.83
28.67
32.27
34.66
35.99
36.65
37.12
38.06
39.99
43.17
47.39
51.97
55.91
58.26
58.40
56.20
52.02
46.57
40.65
35.11
30.78
28.41
28.64
31.68
37.18
44.06
50.76
55.59
57.22
55.05
49.25
40.65
30.33
19.28
8.19
-2.62
-13.07
-23.03
-32.17
-39.94
-45.85
-49.68
-51.69
-52.61
-53.30
-54.39
-55.86
-57.22
-57.74
-56.96
-54.94
-52.22
-49.41
-46.94
-44.79
-42.77
-40.76
-38.94
-37.71
-37.47
-38.26
-39.67
-41.01
-41.56
-40.86
-38.82
-35.57
-31.29
-26.05
-19.75
-12.31
-3.78
5.52
15.00
23.88
31.41
37.07
40.68
42.43
42.71
41.97
40.52
38.58
36.30
33.87
31.50
29.45
27.90
26.91
26.50
26.65
27.31
28.33
29.43
30.18
30.14
29.07
27.03
24.36
21.54
18.91
16.60
14.55
12.64
10.85
9.24
7.83
6.46
4.76
2.27
-1.16
-5.24
-9.20
-12.12
-13.29
-12.59
-10.46
-7.72
-5.14
-3.12
-1.80
-1.06
-0.88
-1.37
-2.75
-5.17
-8.54
-12.55
-16.71
-20.56
-23.80
-26.34
-28.21
-29.44
-30.06
-29.99
-29.15
-27.59
-25.53
-23.32
-21.36
-19.95
-19.09
-18.48
-17.64
-16.06
-13.48
-10.02
-6.09
-2.30
0.84
3.06
4.32
4.68
4.27
3.26
1.97
0.96
1.03
2.95
7.15
13.50
21.31
29.56
37.29
43.84
48.83
52.09
53.42
52.66
49.78
45.15
39.59
34.22
30.09
27.86
27.46
28.28
29.38
29.92
29.45
28.06
26.19
24.35
22.90
21.83
20.78
19.26
16.84
13.37
8.99
4.05
-1.09
-6.25
-11.38
-16.52
-21.61
-26.41
-30.59
-33.95
-36.55
-38.75
-40.97
-43.49
-46.15
-48.40
-49.48
-48.74
-45.92
-41.15
-34.88
-27.69
-20.08
-12.45
-5.09
1.68
7.49
11.90
14.57
15.33
14.29
11.86
8.58
5.01
1.63
-1.23
-3.29
-4.33
-4.19
-2.86
-0.46
2.69
6.27
10.01
13.71
17.20
20.26
22.60
23.99
24.39
24.08
23.48
22.99
22.74
22.53
21.94
20.58
18.25
15.02
11.15
7.09
3.29
0.32
-1.26
-0.94
1.50
5.91
11.80
18.44
25.20
31.65
37.68
43.37
48.78
53.80
58.22
61.79
64.45
66.38
68.01
69.86
72.31
75.50
79.27
83.36
87.57
91.87
96.49
101.68
107.54
113.88
120.18
125.69
129.65
131.45
130.73
127.33
121.31
112.88
102.41
90.37
77.26
63.46
49.16
34.36
19.01
3.24
-12.45
-27.18
-39.90
-49.64
-55.83
-58.53
-58.30
-56.01
-52.58
-48.79
-45.31
-42.63
-41.10
-40.88
-41.77
-43.25
-44.60
-45.05
-44.07
-41.51
-37.65
-33.07
-28.50
-24.63
-21.92
-20.54
-20.33
-20.92
-21.88
-22.90
-23.90
-25.00
-26.39
-28.06
-29.84
-31.32
-32.12
-32.02
-31.15
-29.88
-28.77
-28.33
-28.80
-30.20
-32.31
-34.81
-37.37
-39.69
-41.48
-42.45
-42.39
-41.25
-39.18
-36.52
-33.66
-30.92
-28.50
-26.47
-24.80
-23.53
-22.70
-22.41
-22.75
-23.70
-25.18
-26.97
-28.76
-30.22
-31.10
-31.26
-30.79
-29.85
-28.69
-27.50
-26.38
-25.35
-24.41
-23.58
-22.92
-22.49
-22.37
-22.71
-23.65
-25.25
-27.45
-29.94
-32.30
-34.05
-34.95
-35.02
-34.62
-34.31
-34.55
-35.55
-37.12
-38.68
-39.53
-39.02
-36.82
-32.98
-27.95
-22.31
-16.73
-11.77
-7.79
-5.05
-3.75
-3.94
-5.63
-8.68
-12.72
-17.24
-21.67
-25.46
-28.22
-29.79
-30.26
-29.87
-28.91
-27.67
-26.32
-24.93
-23.45
-21.85
-20.19
-18.69
-17.69
-17.60
-18.63
-20.71
-23.49
-26.38
-28.83
-30.46
-31.19
-31.20
-30.90
-30.74
-31.09
-32.09
-33.52
-34.79
-35.16
-33.97
-30.96
-26.38
-20.83
-15.08
-9.65
-4.79
-0.50
3.23
6.30
8.47
9.55
9.49
8.39
6.54
4.26
1.91
-0.20
-1.76
-2.58
-2.61
-2.01
-1.08
-0.13
0.67
1.43
2.42
3.97
6.23
9.03
11.95
14.42
15.97
16.34
15.54
13.85
11.70
9.53
7.69
6.38
5.54
4.99
4.48
3.93
3.52
3.81
5.48
9.03
14.46
21.12
28.02
34.18
39.02
42.49
44.83
46.21
46.50
45.32
42.33
37.59
31.61
25.12
18.56
11.84
4.55
-3.54
-11.98
-19.58
-24.93
-27.24
-26.88
-25.27
-24.14
-24.59
-26.54
-28.99
-30.77
-31.32
-30.85
-29.97
-29.06
-28.01
-26.54
-24.84
-23.82
-24.89
-29.18
-36.80
-46.58
-56.42
-64.12
-68.02
-67.50
-62.88
-55.23
-46.01
-36.66
-28.29
-21.32
-15.52
-10.33
-5.40
-1.02
1.88
2.28
-0.21
-5.08
-11.06
-16.65
-20.74
-22.79
-22.79
-21.07
-18.05
-14.34
-10.72
-7.94
-6.48
-6.30
-6.90
-7.62
-8.06
-8.47
-9.66
-12.67
-18.21
-26.27
-36.09
-46.48
-56.37
-65.31
-73.58
-82.03
-91.43
-101.92
-112.74
-122.41
-129.36
-132.52
-131.60
-126.92
-118.95
-107.97
-94.11
-77.59
-59.17
-40.10
-21.97
-6.12
6.63
16.22
23.03
27.57
30.28
31.49
31.55
30.82
29.82
28.93
28.36
28.10
27.95
27.71
27.18
26.28
24.93
23.06
20.60
17.62
14.28
10.88
7.80
5.34
3.65
2.62
1.95
1.20
-0.07
-2.18
-5.25
-9.07
-13.13
-16.66
-18.78
-18.73
-16.10
-10.89
-3.62
4.87
13.68
22.03
29.45
35.78
41.05
45.33
48.57
50.63
51.29
50.49
48.35
45.28
41.86
38.71
36.30
34.87
34.38
34.53
34.95
35.29
35.34
35.07
34.51
33.65
32.35
30.37
27.46
23.58
18.95
14.02
9.29
5.07
1.39
-1.98
-5.38
-9.13
-13.40
-18.24
-23.63
-29.34
-34.87
-39.39
-41.85
-41.24
-36.98
-29.25
-18.91
-7.36
3.96
13.98
22.11
28.24
32.54
35.17
36.27
35.97
34.50
32.29
29.92
27.91
26.55
25.80
25.38
24.96
24.38
23.75
23.35
23.46
24.11
25.03
25.71
25.65
24.52
22.34
19.30
15.73
11.87
7.84
3.74
-0.32
-4.17
-7.60
-10.59
-13.30
-16.15
-19.61
-23.99
-29.08
-34.08
-37.70
-38.62
-35.95
-29.54
-20.09
-8.92
2.52
13.02
21.88
28.82
33.93
37.32
39.17
39.65
38.90
37.19
34.81
32.08
29.34
26.88
24.98
23.86
23.62
24.31
25.88
28.15
30.77
33.31
35.34
36.50
36.64
35.83
34.29
32.30
30.10
27.84
25.60
23.43
21.36
19.36
17.45
15.60
13.82
12.14
10.51
8.74
6.47
3.30
-0.93
-5.87
-10.56
-13.68
-13.91
-10.49
-3.50
6.11
16.92
27.39
36.31
42.98
47.20
49.08
48.94
47.14
44.02
39.92
35.16
30.08
25.04
20.35
16.30
13.01
10.58
8.99
8.28
8.47
9.52
11.25
13.28
15.13
16.34
16.61
15.94
14.54
12.78
11.02
9.48
8.19
7.05
5.87
4.52
2.91
1.11
-0.77
-2.59
-4.27
-5.88
-7.58
-9.61
-12.18
-15.39
-19.06
-22.70
-25.51
-26.49
-24.77
-19.93
-12.21
-2.50
7.91
17.73
26.01
32.31
36.61
39.14
40.16
39.90
38.61
36.64
34.44
32.53
31.31
30.96
31.45
32.59
34.15
36.01
38.12
40.47
43.02
45.61
47.95
49.71
50.52
50.11
48.43
45.59
41.88
37.69
33.37
29.09
24.87
20.60
16.13
11.37
6.41
1.44
-3.32
-7.65
-11.48
-14.88
-18.07
-21.35
-24.98
-29.02
-33.19
-36.88
-39.26
-39.54
-37.25
-32.44
-25.70
-18.02
-10.46
-3.88
1.25
4.79
6.85
7.65
7.38
6.20
4.27
1.83
-0.87
-3.56
-6.00
-8.01
-9.44
-10.13
-9.95
-8.86
-6.92
-4.41
-1.71
0.73
2.55
3.49
3.49
2.57
0.87
-1.34
-3.78
-6.13
-8.18
-9.88
-11.31
-12.66
-14.05
-15.50
-16.87
-17.95
-18.62
-18.92
-19.10
-19.58
-20.71
-22.69
-25.37
-28.21
-30.40
-31.02
-29.39
-25.30
-19.14
-11.78
-4.35
2.14
7.02
10.10
11.55
11.71
10.96
9.53
7.58
5.25
2.71
0.23
-1.92
-3.51
-4.43
-4.72
-4.51
-3.98
-3.25
-2.38
-1.35
-0.20
0.99
2.02
2.58
2.40
1.35
-0.44
-2.66
-4.91
-6.85
-8.36
-9.49
-10.49
-11.60
-13.00
-14.73
-16.72
-18.77
-20.63
-22.09
-23.06
-23.62
-24.03
-24.64
-25.76
-27.58
-29.96
-32.45
-34.37
-34.96
-33.60
-30.05
-24.55
-17.75
-10.48
-3.60
2.29
6.90
10.21
12.33
13.44
13.65
13.02
11.70
9.83
7.65
5.43
3.42
1.78
0.58
-0.20
-0.62
-0.77
-0.67
-0.31
0.28
1.07
1.91
2.57
2.77
2.28
1.01
-1.04
-3.62
-6.39
-8.94
-10.92
-12.19
-12.83
-13.16
-13.59
-14.42
-15.72
-17.20
-18.30
-18.35
-16.84
-13.62
-8.98
-3.50
2.15
7.51
12.43
17.07
21.69
26.47
31.41
36.43
41.51
46.95
53.33
61.29
71.16
82.61
94.44
105.01
112.67
116.41
116.03
112.02
105.25
96.81
88.03
80.60
76.45
77.21
83.36
93.72
105.64
115.91
122.11
123.52
121.18
116.85
111.72
105.59
96.98
84.24
66.72
45.44
22.92
2.13
-14.74
-27.01
-35.48
-41.67
-46.93
-51.68
-55.40
-57.06
-55.82
-51.69
-45.65
-39.33
-34.34
-31.71
-31.56
-33.13
-35.39
-37.45
-39.04
-40.43
-42.23
-44.90
-48.45
-52.30
-55.49
-57.01
-56.21
-53.09
-48.35
-43.04
-38.13
-34.08
-30.77
-27.75
-24.65
-21.48
-18.67
-16.78
-16.09
-16.45
-17.36
-18.27
-18.81
-18.84
-18.33
-17.17
-15.24
-12.50
-9.13
-5.55
-2.30
0.10
1.21
0.77
-1.34
-4.96
-9.57
-14.30
-18.18
-20.59
-21.52
-21.50
-21.28
-21.27
-21.35
-21.04
-19.99
-18.33
-16.67
-15.71
-15.79
-16.64
-17.69
-18.44
-18.88
-19.39
-20.49
-22.36
-24.75
-27.09
-28.67
-28.94
-27.55
-24.45
-19.86
-14.37
-8.77
-3.83
0.01
2.83
5.04
7.04
8.87
10.02
9.90
8.18
5.19
1.71
-1.40
-3.69
-5.31
-6.62
-7.90
-8.98
-9.46
-8.98
-7.63
-5.98
-4.79
-4.61
-5.55
-7.36
-9.69
-12.36
-15.34
-18.63
-22.03
-25.09
-27.30
-28.36
-28.34
-27.62
-26.70
-25.88
-25.22
-24.60
-23.87
-23.09
-22.53
-22.55
-23.40
-25.01
-26.90
-28.27
-28.21
-26.08
-21.79
-15.85
-9.16
-2.65
3.11
7.94
11.97
15.27
17.66
18.70
17.97
15.38
11.27
6.36
1.42
-2.88
-6.09
-7.87
-7.96
-6.23
-2.82
1.75
6.62
10.98
14.28
16.54
18.13
19.53
20.85
21.77
21.63
19.85
16.23
11.09
5.08
-1.19
-7.39
-13.72
-20.79
-29.58
-41.07
-55.98
-74.46
-95.78
-118.37
-139.97
-158.15
-170.88
-177.06
-176.59
-170.28
-159.53
-145.87
-130.66
-115.00
-99.74
-85.55
-72.91
-62.01
-52.60
-44.14
-36.06
-28.17
-20.95
-15.36
-12.33
-11.93
-12.98
-13.10
-9.66
-0.90
13.21
30.93
49.49
66.21
79.44
88.74
94.56
97.58
98.26
96.76
93.19
87.98
81.85
75.56
69.55
63.73
57.67
50.87
43.12
34.60
25.70
16.76
7.92
-0.93
-9.89
-18.72
-26.78
-33.09
-36.62
-36.69
-33.11
-26.33
-17.24
-6.96
3.38
12.76
20.35
25.55
28.07
27.99
25.77
22.13
17.92
13.92
10.61
8.22
6.69
5.85
5.56
5.80
6.62
8.05
10.00
12.23
14.36
16.03
16.94
17.00
16.27
14.94
13.22
11.27
9.15
6.84
4.22
1.12
-2.58
-6.96
-11.89
-17.10
-22.19
-26.83
-30.87
-34.45
-37.93
-41.83
-46.55
-52.23
-58.61
-64.98
-70.32
-73.48
-73.44
-69.61
-61.98
-51.15
-38.25
-24.73
-12.01
-1.23
6.97
12.54
15.87
17.59
18.30
18.38
17.98
17.15
15.95
14.57
13.25
12.23
11.63
11.50
11.86
12.72
14.12
15.96
17.91
19.46
20.03
19.24
17.06
13.83
10.07
6.24
2.54
-1.05
-4.70
-8.45
-12.15
-15.48
-18.15
-20.06
-21.36
-22.46
-23.88
-26.06
-29.32
-33.65
-38.72
-43.74
-47.58
-48.91
-46.65
-40.32
-30.30
-17.72
-4.13
8.97
20.51
29.97
37.25
42.47
45.79
47.37
47.40
46.18
44.06
41.45
38.71
36.17
34.15
32.96
32.87
34.03
36.31
39.28
42.27
44.54
45.45
44.63
42.08
38.12
33.26
28.00
22.74
17.70
12.94
8.46
4.24
0.32
-3.26
-6.46
-9.27
-11.69
-13.77
-15.59
-17.28
-19.12
-21.34
-24.00
-26.79
-28.95
-29.41
-27.20
-21.78
-13.24
-2.35
9.79
21.98
33.30
43.15
51.21
57.26
61.17
62.88
62.43
60.06
56.25
51.60
46.88
42.81
39.97
38.65
38.86
40.25
42.29
44.39
46.11
47.20
47.55
47.16
45.99
43.93
40.89
36.93
32.27
27.29
22.43
18.01
14.12
10.64
7.31
3.83
0.04
-4.11
-8.48
-12.82
-16.87
-20.42
-23.34
-25.64
-27.59
-29.67
-32.58
-36.97
-43.14
-50.68
-58.45
-64.75
-67.88
-66.70
-61.03
-51.67
-40.05
-27.80
-16.31
-6.53
1.01
6.14
8.87
9.43
8.20
5.74
2.70
-0.27
-2.55
-3.69
-3.44
-1.75
1.22
5.16
9.76
14.66
19.52
24.05
27.92
30.84
32.58
33.06
32.33
30.56
28.01
24.93
21.63
18.42
15.52
13.09
11.05
9.22
7.33
5.18
2.67
-0.12
-3.03
-5.85
-8.37
-10.48
-12.18
-13.64
-15.21
-17.37
-20.50
-24.68
-29.49
-33.99
-36.98
-37.33
-34.34
-28.02
-19.01
-8.36
2.75
13.28
22.55
30.16
35.99
40.07
42.50
43.43
42.98
41.30
38.55
35.04
31.22
27.68
25.02
23.69
23.87
25.43
28.03
31.24
34.62
37.84
40.61
42.69
43.94
44.31
43.82
42.64
40.94
38.83
36.40
33.67
30.71
27.63
24.57
21.62
18.77
15.91
12.89
9.64
6.26
2.98
0.06
-2.34
-4.25
-5.86
-7.52
-9.56
-12.31
-15.95
-20.40
-25.16
-29.30
-31.54
-30.72
-26.22
-18.30
-8.07
2.88
13.09
21.74
28.71
34.35
39.02
42.74
45.21
46.01
45.01
42.51
39.20
35.95
33.52
32.52
33.31
36.02
40.38
45.62
50.35
52.94
52.05
47.37
39.93
31.90
25.73
23.15
24.59
29.18
35.38
41.82
47.81
53.36
58.75
64.09
69.09
73.23
76.10
77.68
78.43
79.00
79.91
81.21
82.37
82.42
80.31
75.53
68.38
59.95
51.60
44.32
38.19
32.57
26.66
20.20
13.77
8.57
5.67
5.44
7.36
10.21
12.63
13.52
12.13
7.96
0.84
-9.04
-20.76
-32.87
-43.76
-52.25
-58.05
-61.72
-64.27
-66.55
-68.81
-70.79
-71.84
-71.43
-69.35
-65.80
-61.39
-56.96
-53.44
-51.57
-51.66
-53.46
-56.18
-58.78
-60.33
-60.31
-58.58
-55.41
-51.33
-47.06
-43.42
-41.24
-40.95
-42.48
-45.22
-48.24
-50.76
-52.41
-53.41
-54.25
-55.48
-57.51
-60.58
-64.84
-70.28
-76.67
-83.36
-89.34
-93.40
-94.43
-91.87
-85.83
-77.06
-66.87
-56.72
-47.98
-41.58
-37.88
-36.56
-36.79
-37.47
-37.63
-36.73
-34.75
-32.04
-29.05
-26.04
-22.93
-19.37
-14.79
-8.80
-1.32
7.33
16.41
25.05
32.49
38.37
42.68
45.74
47.87
49.25
49.92
49.80
48.88
47.27
45.09
42.40
39.21
35.50
31.43
27.35
23.62
20.42
17.62
14.83
11.69
8.15
4.55
1.52
-0.39
-0.88
0.12
2.64
6.72
12.41
19.61
27.81
36.09
43.34
48.63
51.54
52.23
51.22
49.13
46.37
43.09
39.20
34.62
29.37
23.60
17.62
11.71
6.07
0.68
-4.70
-10.37
-16.54
-23.27
-30.56
-38.45
-47.31
-57.76
-70.59
-86.29
-104.64
-124.54
-144.23
-161.77
-175.77
-185.82
-192.48
-196.84
-199.79
-201.52
-201.53
-199.10
-193.82
-185.86
-175.69
-163.54
-149.03
-131.36
-110.10
-85.93
-60.80
-37.35
-17.65
-2.35
9.46
19.42
28.86
38.14
46.86
54.58
61.48
68.40
76.18
84.95
93.87
101.48
106.58
108.88
109.02
108.15
107.11
106.13
104.88
102.92
100.12
96.73
93.08
89.27
85.04
79.95
73.79
66.76
59.36
52.15
45.46
39.30
33.56
28.15
23.13
18.62
14.61
10.80
6.73
1.93
-3.73
-9.87
-15.59
-19.82
-21.70
-20.84
-17.45
-12.13
-5.68
1.24
8.09
14.51
20.14
24.61
27.59
28.98
29.06
28.35
27.53
27.12
27.39
28.36
29.82
31.54
33.23
34.51
34.95
34.09
31.58
27.35
21.66
14.97
7.70
-0.13
-9.02
-19.88
-33.58
-50.45
-69.83
-90.01
-108.74
-123.90
-134.22
-139.59
-140.85
-139.17
-135.63
-130.82
-125.06
-118.66
-112.09
-105.95
-100.58
-95.73
-90.56
-83.89
-74.71
-62.69
-48.36
-33.07
-18.46
-5.96
3.77
10.99
16.66
21.88
27.27
32.59
36.92
39.20
38.83
36.17
32.39
29.00
27.20
27.54
29.82
33.47
37.84
42.37
46.58
49.96
51.96
52.22
50.64
47.55
43.51
39.08
34.64
30.30
26.05
21.86
17.87
14.16
10.75
7.51
4.19
0.62
-3.20
-7.03
-10.52
-13.19
-14.60
-14.35
-12.22
-8.28
-3.04
2.67
7.78
11.36
12.89
12.38
10.32
7.44
4.40
1.61
-0.81
-3.01
-5.22
-7.64
-10.26
-12.80
-14.72
-15.34
-14.05
-10.47
-4.66
2.73
10.68
17.88
23.18
25.86
25.78
23.34
19.24
14.28
9.14
4.39
0.44
-2.38
-3.97
-4.45
-4.38
-4.56
-5.88
-8.99
-14.02
-20.56
-27.73
-34.51
-39.88
-43.20
-44.08
-42.50
-38.58
-32.53
-24.71
-15.54
-5.66
4.22
13.30
20.98
26.85
30.82
33.00
33.60
32.95
31.50
29.86
28.75
28.86
30.50
33.50
37.10
40.30
42.23
42.44
41.12
38.86
36.37
34.13
32.26
30.59
28.84
26.84
24.51
21.83
18.69
14.89
10.16
4.47
-1.84
-8.01
-13.20
-16.81
-18.85
-19.92
-21.03
-23.01
-26.13
-29.89
-33.17
-34.74
-33.69
-29.72
-23.17
-14.77
-5.42
3.96
12.56
19.85
25.64
30.18
34.04
37.74
41.41
44.68
46.82
47.21
45.66
42.58
38.70
34.55
30.23
25.41
19.80
13.54
7.36
2.37
-0.51
-1.16
-0.36
0.46
-0.11
-2.68
-6.77
-10.90
-13.35
-12.96
-9.71
-4.65
0.60
4.69
7.07
8.13
8.83
10.13
12.57
16.14
20.50
25.32
30.44
35.89
41.57
47.24
52.41
56.57
59.50
61.38
62.66
63.83
64.95
65.62
65.08
62.62
58.04
51.77
44.70
37.77
31.60
26.31
21.66
17.40
13.55
10.52
8.92
9.12
10.98
13.83
16.71
18.82
19.92
20.31
20.63
21.37
22.59
23.84
24.53
24.22
22.94
21.13
19.36
18.03
17.22
16.63
15.82
14.39
12.11
9.04
5.56
2.22
-0.24
-1.22
-0.40
2.06
5.60
9.44
12.93
15.85
18.38
20.91
23.76
26.90
29.97
32.50
34.14
34.80
34.55
33.45
31.45
28.49
24.72
20.58
16.75
13.93
12.48
12.39
13.24
14.54
15.87
16.93
17.49
17.31
16.17
13.92
10.61
6.54
2.21
-1.84
-5.14
-7.40
-8.68
-9.35
-10.00
-11.21
-13.24
-15.82
-18.17
-19.35
-18.62
-15.83
-11.33
-5.80
0.13
6.02
11.58
16.54
20.51
23.12
24.15
23.73
22.16
19.72
16.47
12.25
6.98
0.98
-4.95
-9.85
-12.99
-14.34
-14.48
-14.22
-14.19
-14.48
-14.84
-14.99
-14.92
-14.83
-14.91
-15.10
-15.26
-15.39
-16.03
-18.14
-22.68
-29.98
-39.37
-49.51
-58.92
-66.83
-73.40
-79.35
-85.25
-90.98
-95.62
-97.96
-97.18
-93.32
-87.21
-80.18
-73.46
-67.85
-63.46
-59.98
-57.09
-54.80
-53.60
-54.16
-56.92
-61.56
-66.99
-71.79
-74.90
-76.15
-76.11
-75.55
-74.65
-72.72
-68.69
-61.90
-52.78
-42.62
-32.95
-24.66
-17.72
-11.59
-5.91
-0.97
2.46
3.80
3.26
2.00
1.55
3.00
6.34
10.43
13.55
14.37
12.59
9.13
5.75
4.33
6.09
11.20
18.95
28.23
38.00
47.60
56.72
65.14
72.68
79.16
84.45
88.66
91.93
94.19
95.03
93.80
89.96
83.42
74.77
65.17
55.99
48.47
43.33
40.69
40.06
40.64
41.45
41.52
39.98
36.08
29.48
20.46
10.12
0.15
-7.77
-12.70
-14.93
-15.84
-17.19
-20.35
-25.61
-32.34
-39.46
-46.00
-51.25
-54.61
-55.49
-53.44
-48.65
-42.27
-36.32
-32.83
-32.86
-35.94
-40.48
-44.86
-48.55
-52.52
-58.56
-68.08
-81.04
-95.73
-109.53
-120.18
-126.79
-130.12
-132.07
-134.70
-139.24
-145.44
-151.70
-155.80
-155.75
-150.52
-140.51
-127.18
-112.67
-99.07
-88.10
-80.74
-76.88
-74.93
-71.58
-62.69
-45.02
-18.19
14.35
46.20
70.75
84.22
87.46
85.37
84.41
89.42
101.72
119.09
137.46
153.11
164.00
169.76
170.81
167.47
159.80
148.06
133.36
117.90
104.26
94.44
88.85
85.94
82.74
75.91
62.93
42.55
14.89
-18.98
-57.17
-97.12
-135.72
-169.80
-196.83
-215.62
-226.49
-230.91
-230.76
-227.57
-222.10
-214.43
-204.25
-191.35
-176.02
-159.08
-141.60
-124.42
-107.59
-90.29
-71.12
-48.92
-23.57
3.59
30.09
53.23
71.19
83.61
91.53
96.56
100.02
102.32
103.08
101.63
97.72
91.85
85.21
79.26
75.06
72.86
72.08
71.66
70.83
69.47
68.23
67.98
69.21
71.50
73.62
74.06
71.93
67.36
61.45
55.62
50.79
46.97
43.38
39.11
33.75
27.58
21.34
15.72
11.03
7.31
4.63
3.50
4.84
9.57
18.07
29.80
43.34
56.86
68.74
77.95
84.11
87.42
88.38
87.59
85.63
82.92
79.70
76.02
71.77
66.88
61.35
55.33
49.12
43.18
38.07
34.33
32.19
31.35
30.89
29.54
26.11
20.04
11.55
1.52
-8.98
-19.09
-28.43
-37.00
-44.99
-52.57
-59.83
-66.77
-73.32
-79.25
-83.97
-86.57
-85.90
-80.96
-71.32
-57.49
-40.89
-23.52
-7.40
6.10
16.50
24.15
29.76
33.94
36.89
38.45
38.47
37.05
34.70
32.14
29.96
28.34
27.00
25.43
23.18
20.15
16.54
12.74
9.12
5.85
2.93
0.35
-1.88
-3.75
-5.32
-6.85
-8.78
-11.50
-15.18
-19.67
-24.54
-29.40
-34.06
-38.60
-43.31
-48.46
-54.02
-59.68
-64.82
-68.69
-70.56
-69.97
-66.76
-61.16
-53.72
-45.16
-36.26
-27.69
-19.96
-13.39
-8.16
-4.34
-1.92
-0.83
-0.83
-1.59
-2.65
-3.53
-3.83
-3.30
-1.85
0.51
3.67
7.54
11.97
16.79
21.81
26.82
31.54
35.65
38.79
40.73
41.50
41.42
41.04
40.97
41.53
42.69
44.09
45.29
46.07
46.50
46.90
47.51
48.34
49.13
49.66
49.99
50.65
52.40
55.87
61.13
67.56
74.24
80.36
85.51
89.53
92.10
92.45
89.43
82.11
70.49
55.64
39.42
23.55
8.93
-4.57
-17.68
-30.98
-44.46
-57.47
-69.21
-79.19
-87.36
-93.96
-99.15
-102.82
-104.69
-104.43
-101.85
-97.11
-90.62
-82.90
-74.42
-65.40
-55.70
-45.04
-33.27
-20.63
-7.80
4.56
16.17
27.37
38.83
50.94
63.17
74.06
81.89
85.56
85.41
83.01
80.41
79.05
79.18
79.99
80.26
79.19
76.82
73.91
71.40
70.02
70.04
71.37
73.70
76.66
79.75
82.22
83.28
82.29
79.22
74.79
70.30
67.08
65.91
66.69
68.65
71.00
73.45
76.48
81.16
88.45
98.58
110.50
121.82
129.19
129.19
119.49
99.61
71.28
37.87
3.37
-28.96
-57.23
-80.96
-100.38
-115.68
-126.74
-133.27
-135.33
-133.62
-129.39
-123.99
-118.61
-114.18
-111.57
-111.56
-114.38
-119.10
-123.25
-123.30
-115.97
-99.95
-77.10
-52.11
-30.88
-18.28
-16.33
-24.16
-39.32
-59.75
-85.15
-117.28
-158.78
-211.38
-274.06
-342.08
-407.47
-460.82
-493.97
-502.45
-486.74
-451.60
-404.08
-350.89
-296.64
-243.48
-192.12
-143.24
-98.18
-58.56
-25.05
3.52
30.22
58.96
92.68
131.80
173.51
212.16
241.21
255.57
253.50
237.13
211.36
181.60
151.89
123.96
97.86
73.25
50.52
30.89
15.59
5.06
-1.41
-5.08
-6.90
-6.93
-4.51
1.17
10.66
24.32
42.51
65.56
93.32
124.50
156.26
184.88
206.95
220.56
225.61
223.21
214.54
200.00
179.43
153.18
123.14
93.08
68.06
52.90
50.84
62.75
86.96
119.70
155.63
188.74
213.50
226.18
225.98
215.03
197.48
177.59
158.02
139.27
120.24
99.63
77.12
53.91
32.01
13.22
-1.72
-13.25
-22.55
-30.90
-39.15
-47.58
-56.11
-64.52
-72.72
-80.76
-88.80
-96.86
-104.75
-111.88
-117.51
-121.16
-122.83
-122.83
-120.97
-115.96
-105.50
-87.52
-62.07
-32.49
-4.75
14.95
23.19
21.09
13.65
7.01
5.35
9.07
15.51
21.29
24.78
26.65
28.81
32.49
37.09
40.81
42.67
44.23
49.51
62.80
85.69
115.16
144.27
164.76
170.53
159.84
135.54
103.33
69.31
37.99
11.48
-10.12
-27.78
-42.56
-55.10
-65.51
-73.57
-79.03
-81.80
-82.18
-80.67
-77.91
-74.20
-69.89
-65.63
-62.71
-63.03
-68.55
-80.06
-96.23
-113.38
-126.22
-129.91
-122.14
-104.51
-82.24
-62.16
-50.11
-49.03
-58.47
-75.53
-96.60
-118.37
-138.32
-154.60
-165.78
-171.02
-170.51
-165.44
-157.71
-148.95
-139.58
-128.54
-113.80
-93.49
-67.16
-36.68
-5.93
20.64
39.74
50.85
56.21
59.24
62.48
66.38
69.89
71.97
72.76
73.22
73.66
72.47
66.53
53.44
33.88
12.32
-4.99
-13.76
-14.31
-11.47
-11.56
-18.51
-31.90
-48.09
-63.51
-77.21
-91.17
-107.91
-127.30
-145.13
-154.50
-149.08
-126.48
-89.45
-44.39
1.43
42.66
77.05
104.94
127.92
147.36
163.95
177.87
189.32
198.71
206.58
213.24
218.75
222.91
225.41
225.66
222.75
215.47
202.47
182.85
156.56
124.64
89.02
52.08
15.86
-18.46
-50.66
-81.19
-110.70
-139.70
-168.57
-197.55
-226.77
-255.84
-283.56
-307.78
-326.00
-336.46
-339.15
-336.11
-330.55
-325.29
-321.35
-317.32
-310.09
-296.20
-273.26
-240.61
-199.29
-151.42
-99.53
-46.28
5.74
54.06
96.71
132.45
160.98
182.77
198.56
209.01
214.39
214.66
209.78
200.09
186.53
170.61
154.04
138.31
124.39
112.65
103.20
96.09
91.42
89.20
89.11
90.37
91.82
92.32
91.15
88.28
84.28
79.89
75.62
71.51
67.18
62.13
56.02
48.78
40.62
31.90
22.97
14.21
6.04
-1.08
-6.69
-10.52
-12.62
-13.40
-13.53
-13.81
-14.99
-17.56
-21.61
-26.77
-32.19
-36.71
-39.18
-38.76
-35.22
-28.96
-20.84
-11.89
-3.05
4.90
11.37
15.88
18.08
17.83
15.30
10.95
5.46
-0.48
-6.30
-11.60
-16.09
-19.51
-21.60
-22.13
-21.04
-18.50
-14.89
-10.75
-6.64
-3.05
-0.40
1.03
1.07
-0.23
-2.60
-5.49
-8.25
-10.36
-11.57
-12.03
-12.15
-12.46
-13.34
-14.94
-17.24
-20.14
-23.65
-27.82
-32.72
-38.10
-43.33
-47.41
-49.10
-47.32
-41.37
-31.22
-17.51
-1.52
15.14
30.89
44.46
55.24
63.11
68.40
71.45
72.43
71.20
67.46
61.06
52.13
41.23
29.18
16.84
4.95
-6.10
-16.10
-25.00
-32.65
-38.85
-43.51
-46.91
-49.82
-53.23
-57.83
-63.54
-69.49
-74.76
-79.34
-84.36
-91.43
-101.22
-112.40
-121.93
-126.39
-123.77
-114.33
-100.10
-83.46
-65.83
-47.48
-28.29
-8.97
8.64
22.11
29.89
32.36
31.94
32.03
35.45
43.30
54.68
67.34
78.59
86.49
90.28
90.29
87.28
81.84
74.12
64.10
52.19
39.37
27.03
16.30
7.56
0.43
-5.79
-11.48
-16.44
-20.05
-21.71
-21.35
-19.39
-16.60
-13.64
-10.98
-8.85
-7.49
-7.29
-8.52
-11.20
-14.79
-18.38
-21.09
-22.55
-23.07
-23.49
-24.64
-26.81
-29.61
-32.19
-33.78
-34.25
-34.05
-33.97
-34.57
-35.81
-37.10
-37.81
-37.79
-37.59
-38.29
-40.71
-44.91
-49.80
-53.59
-54.48
-51.44
-44.53
-34.77
-23.49
-11.88
-0.70
9.54
18.47
25.61
30.54
33.12
33.59
32.50
30.55
28.30
26.12
24.25
22.97
22.61
23.40
25.31
28.01
30.96
33.70
36.03
38.06
39.97
41.74
43.07
43.45
42.43
39.93
36.25
31.97
27.62
23.44
19.31
14.98
10.26
5.25
0.32
-4.00
-7.27
-9.27
-10.09
-10.05
-9.57
-9.08
-8.95
-9.49
-10.93
-13.31
-16.35
-19.32
-21.11
-20.47
-16.46
-8.89
1.64
13.84
26.16
37.32
46.49
53.39
58.08
60.72
61.46
60.51
58.13
54.78
51.01
47.34
44.19
41.80
40.20
39.34
39.06
39.21
39.67
40.36
41.23
42.17
42.97
43.35
43.03
41.84
39.72
36.81
33.48
30.17
27.33
25.32
24.35
24.33
24.93
25.63
25.99
25.67
24.66
23.16
21.53
20.20
19.50
19.60
20.36
21.32
21.74
20.89
18.38
14.36
9.62
5.30
2.49
1.78
3.12
5.80
8.83
11.25
12.43
12.24
10.93
9.01
6.79
4.24
0.80
-4.20
-11.18
-19.87
-29.35
-38.38
-45.94
-51.62
-55.64
-58.67
-61.41
-64.26
-67.15
-69.59
-70.96
-70.75
-68.98
-66.25
-63.64
-62.33
-63.05
-65.72
-69.57
-73.54
-76.64
-78.21
-77.71
-74.65
-68.61
-59.62
-48.54
-36.93
-26.59
-18.71
-13.45
-10.10
-7.77
-6.04
-5.24
-6.02
-8.65
-12.47
-15.89
-16.97
-14.29
-7.45
2.75
14.72
26.65
37.02
44.94
50.09
52.55
52.61
50.71
47.40
43.48
40.11
38.75
40.87
47.45
58.60
73.39
90.04
106.42
120.60
131.50
139.03
143.89
147.11
149.40
150.94
151.38
150.25
147.31
142.87
137.70
132.81
129.14
127.33
127.70
130.24
134.73
140.77
147.87
155.55
163.35
170.79
177.27
181.95
183.77
181.65
174.86
163.24
147.31
128.07
106.70
84.35
62.07
40.78
21.22
3.81
-11.48
-25.19
-37.98
-50.32
-62.10
-72.67
-81.28
-87.66
-92.39
-96.81
-102.36
-109.69
-118.19
-126.10
-131.34
-132.48
-129.49
-123.84
-117.96
-114.40
-114.90
-120.00
-128.98
-140.17
-151.58
-161.18
-167.26
-168.32
-163.45
-152.46
-136.83
-120.24
-107.77
-103.75
-109.11
-120.00
-128.90
-128.59
-116.19
-94.94
-72.24
-54.97
-45.17
-38.85
-28.76
-9.02
21.12
57.16
92.36
121.65
143.76
160.35
173.45
183.16
187.42
183.56
170.16
148.13
120.27
90.01
59.92
31.29
4.31
-21.44
-46.24
-70.01
-92.41
-112.95
-131.19
-147.14
-161.58
-176.48
-195.12
-221.57
-259.18
-308.62
-366.14
-423.39
-469.16
-492.81
-487.96
-454.72
-399.28
-331.16
-259.52
-190.32
-125.64
-64.74
-5.94
51.92
109.21
165.93
222.08
277.14
329.26
374.60
407.77
423.26
417.35
389.77
344.14
287.07
226.40
169.31
121.40
86.26
65.59
59.25
65.11
78.97
95.23
108.24
113.70
109.62
96.22
74.98
47.66
16.03
-18.02
-51.97
-82.58
-106.68
-122.56
-130.82
-134.11
-135.65
-137.25
-138.25
-135.95
-127.48
-111.84
-91.07
-69.53
-51.65
-39.65
-32.42
-26.35
-17.80
-5.29
9.52
23.02
31.85
34.95
34.16
33.24
36.13
45.37
61.44
82.92
107.45
132.72
157.20
180.15
201.41
220.61
236.66
247.81
252.30
249.45
240.50
228.44
216.76
207.69
201.05
194.33
184.06
167.70
144.98
117.85
89.22
61.22
34.18
6.76
-22.71
-54.65
-87.32
-117.25
-140.66
-155.11
-160.60
-159.25
-154.38
-149.01
-144.95
-142.68
-141.76
-141.53
-141.50
-141.79
-143.06
-146.55
-153.97
-167.16
-187.43
-214.37
-244.80
-272.59
-290.27
-291.86
-276.12
-247.99
-217.30
-194.85
-187.82
-196.78
-215.94
-236.21
-249.15
-249.95
-237.85
-214.48
-181.71
-140.44
-90.67
-32.58
32.72
102.91
174.67
244.14
307.34
360.65
401.54
428.88
443.07
445.73
438.86
424.36
403.70
377.68
346.81
311.73
273.55
234.13
196.08
162.76
137.77
123.99
122.23
130.20
142.45
151.70
151.28
137.49
110.72
74.72
34.49
-6.05
-45.52
-84.91
-126.07
-170.03
-216.76
-265.76
-317.15
-371.48
-428.40
-484.58
-533.42
-566.38
-575.70
-557.70
-513.49
-448.25
-369.27
-284.46
-201.98
-130.75
-80.24
-58.65
-70.01
-111.12
-170.98
-233.38
-282.01
-305.59
-300.78
-271.78
-227.09
-175.24
-121.75
-68.16
-13.14
45.53
109.05
176.74
245.87
312.40
371.65
419.33
452.64
471.03
476.30
471.78
461.00
446.13
427.48
404.01
374.86
340.80
304.72
270.93
243.68
225.43
215.83
211.66
207.77
199.02
182.50
158.97
132.99
111.21
99.46
99.79
109.11
119.95
123.01
110.53
78.79
29.36
-31.35
-94.15
-149.57
-190.31
-212.96
-218.05
-208.84
-189.13
-161.30
-125.77
-81.97
-30.27
26.45
82.70
132.01
169.29
192.80
204.69
209.84
213.67
219.91
229.25
239.39
246.37
246.52
238.05
221.60
199.66
174.96
149.07
121.87
91.82
57.39
18.39
-23.65
-65.81
-105.00
-139.40
-169.24
-196.71
-224.95
-256.21
-290.60
-325.73
-357.65
-382.59
-398.82
-407.47
-411.90
-416.31
-424.27
-438.24
-459.67
-488.88
-524.66
-563.36
-598.59
-622.48
-628.36
-613.37
-579.96
-534.94
-486.43
-440.90
-401.48
-368.16
-339.43
-314.04
-291.63
-272.23
-255.31
-239.22
-221.80
-201.11
-176.33
-147.90
-117.47
-86.94
-57.85
-30.89
-5.86
18.05
41.80
66.16
91.39
117.25
143.17
168.52
192.89
216.22
238.65
260.51
282.02
303.26
324.20
345.08
366.38
388.66
411.78
434.19
452.84
463.73
463.42
450.32
425.55
392.51
355.60
318.77
284.52
253.82
226.73
203.08
182.85
166.04
152.25
140.53
129.53
117.99
105.27
91.53
77.60
64.54
53.10
43.32
34.63
26.16
17.19
7.60
-2.17
-11.34
-19.31
-25.94
-31.63
-36.98
-42.40
-47.87
-52.77
-56.24
-57.50
-56.21
-52.54
-47.03
-40.34
-33.14
-26.02
-19.52
-14.14
-10.17
-7.54
-5.75
-4.09
-1.99
0.65
3.34
5.32
5.99
5.24
3.60
1.92
1.13
2.02
5.13
10.62
18.29
27.48
37.07
45.77
52.34
55.99
56.47
54.09
49.37
42.83
34.76
25.34
14.78
3.55
-7.46
-17.13
-24.38
-28.68
-30.25
-29.89
-28.47
-26.35
-23.18
-18.22
-10.90
-1.32
9.62
20.59
30.23
37.52
41.74
42.39
39.13
31.97
21.42
8.61
-5.04
-18.03
-29.24
-38.05
-44.43
-48.72
-51.41
-52.85
-53.20
-52.45
-50.73
-48.32
-45.60
-42.73
-39.41
-35.01
-29.04
-21.68
-13.89
-6.89
-1.30
3.18
7.37
11.33
13.25
9.74
-2.45
-24.22
-52.78
-82.26
-106.10
-119.82
-122.55
-116.56
-105.34
-91.52
-75.93
-58.02
-37.10
-13.21
12.75
39.64
66.71
93.76
120.60
146.31
168.95
185.83
194.39
193.38
183.44
167.05
147.95
129.88
115.67
106.57
102.26
101.35
102.27
103.70
104.74
104.70
102.74
97.91
89.58
77.88
64.00
49.81
37.08
26.66
17.96
9.24
-1.50
-15.37
-31.77
-48.31
-61.68
-69.01
-69.09
-62.88
-53.17
-43.48
-36.82
-34.83
-37.56
-43.61
-50.79
-56.68
-59.05
-56.38
-48.15
-35.15
-19.19
-2.55
12.89
26.14
36.90
44.92
49.45
49.31
43.56
32.44
17.70
2.19
-11.29
-21.07
-27.00
-30.10
-31.44
-31.29
-29.03
-23.72
-15.04
-3.82
8.14
18.92
27.38
33.57
38.50
43.22
48.14
52.57
55.10
53.98
48.02
36.92
21.32
2.43
-18.43
-39.92
-60.76
-79.75
-96.02
-109.16
-119.32
-127.19
-133.59
-139.19
-143.40
-144.27
-138.91
-125.05
-101.95
-70.89
-34.80
2.53
37.04
65.94
87.90
102.69
109.29
106.40
93.26
70.64
41.28
8.47
-23.19
-48.79
-64.28
-69.89
-68.83
-65.69
-64.29
-66.56
-74.09
-85.83
-98.67
-108.16
-113.58
-116.15
-117.90
-120.54
-125.55
-136.77
-155.82
-180.41
-202.81
-216.01
-213.58
-192.15
-153.23
-88.63
-6.70
71.85
115.26
121.64
99.50
62.98
22.40
-15.26
-46.54
-72.87
-95.05
-111.69
-118.41
-114.39
-100.86
-80.94
-57.97
-35.00
-16.18
-3.14
5.19
12.70
20.69
29.03
36.76
43.35
48.98
53.36
57.44
62.96
72.17
84.53
98.03
110.12
119.02
123.97
124.57
121.57
116.66
112.23
109.66
109.33
110.48
111.45
109.97
103.67
91.18
72.59
49.42
23.61
-3.09
-29.48
-54.94
-79.16
-101.74
-121.98
-138.91
-151.63
-159.54
-162.55
-161.10
-155.94
-147.92
-137.64
-125.23
-110.37
-92.61
-71.75
-48.39
-24.03
-0.82
19.11
34.21
44.03
49.14
50.88
50.82
50.52
51.25
53.94
58.94
65.92
73.85
81.30
86.93
89.98
90.42
88.75
85.61
81.52
76.83
71.88
67.12
63.10
60.25
58.62
57.87
57.36
56.50
55.00
53.03
51.06
49.60
48.97
49.12
49.59
49.71
48.81
46.45
42.59
37.59
32.04
26.66
21.95
18.09
14.95
12.16
9.27
5.94
2.00
-2.51
-7.40
-12.45
-17.36
-21.88
-25.79
-28.99
-31.59
-33.93
-36.54
-39.92
-44.31
-49.47
-54.64
-58.64
-60.30
-58.76
-53.73
-45.59
-35.23
-23.89
-12.81
-3.10
4.47
9.53
12.11
12.54
11.32
8.99
6.05
2.86
-0.27
-3.15
-5.61
-7.54
-8.85
-9.48
-9.37
-8.44
-6.69
-4.25
-1.35
1.62
4.32
6.47
7.92
8.69
8.94
8.88
8.79
8.89
9.35
10.22
11.38
12.60
13.58
14.03
13.77
12.81
11.35
9.75
8.46
7.84
8.04
8.89
9.92
10.50
10.00
7.97
4.23
-1.02
-7.26
-13.67
-19.25
-22.97
-24.01
-21.95
-16.93
-9.68
-1.29
7.05
14.34
19.89
23.38
24.76
24.15
21.81
18.10
13.54
8.67
4.00
-0.12
-3.54
-6.20
-8.15
-9.35
-9.83
-9.70
-9.22
-8.75
-8.58
-8.89
-9.67
-10.88
-12.63
-15.24
-19.12
-24.53
-31.34
-39.06
-46.88
-54.01
-59.83
-64.05
-66.61
-67.57
-67.07
-65.31
-62.54
-59.14
-55.67
-52.83
-51.28
-51.50
-53.49
-56.63
-59.93
-62.36
-63.25
-62.63
-61.21
-60.06
-60.11
-61.74
-64.57
-67.59
-69.42
-68.87
-65.33
-58.91
-50.29
-40.45
-30.29
-20.43
-11.22
-2.75
5.02
12.27
19.32
26.66
34.69
43.61
53.32
63.36
73.24
82.47
90.61
97.23
101.78
103.86
103.68
102.20
100.73
100.08
99.56
96.71
87.83
69.41
39.26
-2.86
-55.08
-113.65
-172.78
-224.54
-259.24
-267.56
-243.70
-188.14
-108.48
-17.41
71.43
147.57
206.00
247.13
273.91
288.95
293.30
287.21
271.71
250.09
226.90
206.39
191.89
184.17
181.62
181.18
179.75
174.94
166.04
153.31
137.70
122.46
111.03
106.08
108.33
116.30
126.81
137.11
144.42
146.01
141.45
130.75
115.08
96.86
79.68
67.01
61.53
61.69
50.71
15.99
-45.42
-122.67
-197.51
-252.43
-285.11
-297.46
-293.83
-279.95
-257.84
-231.93
-207.62
-189.80
-180.46
-177.72
-175.70
-168.92
-154.67
-131.63
-100.80
-63.98
-23.99
14.78
45.88
62.63
59.07
32.83
-11.79
-65.51
-116.55
-154.73
-174.33
-175.03
-160.26
-136.10
-109.33
-85.22
-67.21
-56.40
-52.12
-52.69
-56.35
-61.55
-67.27
-72.78
-76.91
-78.35
-75.89
-69.18
-59.09
-47.55
-36.75
-28.29
-22.48
-18.22
-13.47
-6.14
4.87
19.09
34.46
48.09
57.36
60.86
59.03
54.18
50.00
50.72
59.97
79.78
109.80
147.03
186.36
221.63
247.17
259.07
256.03
239.37
212.46
179.71
145.51
113.44
85.87
63.75
46.65
32.90
20.00
5.43
-12.52
-33.98
-57.35
-79.86
-98.70
-112.05
-119.73
-123.08
-124.23
-125.13
-126.78
-129.01
-130.91
-131.50
-130.30
-127.59
-124.16
-120.74
-117.67
-114.61
-111.00
-106.45
-101.06
-95.27
-89.67
-84.59
-80.06
-75.92
-71.90
-67.70
-63.01
-57.23
-49.57
-39.25
-25.86
-9.79
7.44
23.23
34.53
38.82
35.26
25.21
11.85
-1.08
-10.93
-17.09
-20.83
-24.07
-27.87
-31.75
-34.21
-33.90
-30.82
-26.67
-24.06
-25.20
-30.72
-39.34
-48.47
-55.37
-58.08
-55.73
-48.45
-36.83
-21.74
-4.30
14.06
31.89
47.92
61.34
71.87
79.67
85.18
88.98
91.81
94.51
97.75
101.72
106.02
109.94
112.90
114.88
116.17
116.96
116.79
114.79
110.60
105.29
101.39
101.73
107.61
117.56
127.72
133.62
132.42
124.29
112.15
99.85
89.95
82.54
75.25
64.89
49.35
28.89
6.07
-15.60
-33.48
-46.77
-56.44
-64.12
-70.92
-76.79
-80.89
-82.59
-82.31
-81.40
-81.28
-82.13
-82.39
-79.33
-70.50
-55.40
-36.07
-16.01
1.90
17.25
32.39
50.78
74.43
101.83
127.94
146.47
153.15
147.87
134.39
118.11
103.39
92.28
85.17
82.31
84.95
94.74
111.88
133.51
153.83
165.90
164.48
148.06
119.25
83.54
47.15
15.24
-8.98
-24.13
-30.37
-29.02
-22.57
-14.78
-10.28
-13.75
-28.32
-54.25
-88.30
-124.88
-157.97
-183.42
-200.09
-209.66
-215.09
-218.82
-221.62
-222.67
-220.57
-214.38
-204.20
-190.90
-175.52
-158.66
-140.41
-120.55
-98.87
-75.51
-51.11
-26.76
-3.75
16.84
34.43
48.94
60.09
66.62
65.92
54.78
31.03
-4.46
-47.01
-88.82
-121.30
-138.20
-137.56
-122.21
-98.24
-72.31
-49.04
-29.69
-12.56
5.41
26.49
50.75
75.74
97.27
110.66
111.91
98.57
70.41
30.39
-15.14
-57.12
-86.12
-95.65
-85.23
-61.19
-34.49
-15.93
-11.23
-18.45
-29.12
-32.59
-21.08
7.18
48.06
94.56
140.71
184.00
225.13
265.50
304.25
336.70
355.69
354.81
332.12
292.06
244.27
200.03
167.96
151.28
147.21
149.18
149.95
144.44
130.52
108.19
77.95
39.82
-6.37
-59.72
-117.11
-173.15
-221.42
-256.59
-276.02
-280.13
-271.41
-252.83
-226.87
-195.23
-159.42
-121.34
-83.49
-48.47
-18.29
5.89
23.64
34.83
39.52
37.97
31.12
20.87
10.04
1.72
-1.78
0.25
6.63
14.72
21.40
24.29
22.53
17.05
10.01
3.95
0.86
1.69
6.35
13.97
23.38
33.44
43.21
52.04
59.47
65.17
68.90
70.50
69.88
67.09
62.35
56.12
49.08
42.05
35.72
30.42
26.06
22.20
18.33
14.17
9.80
5.43
1.16
-3.30
-8.54
-15.05
-22.86
-31.38
-39.61
-46.69
-52.36
-57.06
-61.72
-67.11
-73.44
-80.19
-86.50
-91.54
-94.85
-96.34
-96.02
-93.87
-89.78
-83.61
-75.53
-65.99
-55.71
-45.42
-35.69
-26.74
-18.61
-11.30
-4.82
0.87
5.88
10.53
15.25
20.38
26.02
31.91
37.52
42.23
45.50
47.07
47.00
45.70
43.70
41.60
39.83
38.57
37.72
37.00
36.06
34.55
32.31
29.25
25.49
21.22
16.72
12.31
8.21
4.60
1.52
-0.97
-2.88
-4.19
-5.00
-5.59
-6.42
-7.99
-10.56
-13.94
-17.45
-20.11
-21.07
-19.92
-16.90
-12.79
-8.54
-4.91
-2.27
-0.54
0.52
1.18
1.50
1.41
0.80
-0.35
-1.87
-3.54
-5.11
-6.46
-7.54
-8.36
-8.89
-9.05
-8.74
-7.90
-6.64
-5.18
-3.82
-2.81
-2.27
-2.19
-2.43
-2.82
-3.22
-3.60
-3.92
-4.27
-4.72
-5.32
-6.13
-7.16
-8.36
-9.62
-10.79
-11.69
-12.29
-12.68
-13.08
-13.79
-14.95
-16.47
-17.97
-18.94
-18.91
-17.62
-15.13
-11.73
-7.83
-3.77
0.18
3.83
7.02
9.54
11.24
12.02
11.98
11.31
10.32
9.26
8.34
7.68
7.35
7.39
7.86
8.81
10.21
12.03
14.10
16.20
18.13
19.75
21.07
22.23
23.43
24.75
26.16
27.45
28.39
28.89
29.07
29.18
29.47
29.87
29.93
28.87
25.84
20.30
12.35
2.75
-7.29
-16.52
-24.07
-29.68
-33.58
-36.39
-38.93
-42.21
-47.43
-55.72
-67.70
-83.02
-100.11
-116.52
-129.74
-138.02
-140.85
-138.86
-133.37
-125.58
-116.13
-104.98
-91.81
-76.58
-59.94
-43.22
-28.04
-15.67
-6.67
-0.77
2.81
4.80
5.49
4.76
2.41
-1.43
-6.10
-10.60
-14.08
-16.21
-17.24
-17.78
-18.41
-19.45
-20.93
-22.70
-24.59
-26.45
-28.12
-29.35
-29.79
-29.09
-27.01
-23.51
-18.64
-12.53
-5.23
3.18
12.42
21.87
30.57
37.42
41.44
42.19
39.73
34.52
27.10
17.88
7.18
-4.64
-16.94
-28.69
-38.62
-45.58
-48.89
-48.61
-45.52
-40.79
-35.61
-30.86
-26.98
-24.02
-21.89
-20.43
-19.57
-19.27
-19.40
-19.70
-19.84
-19.46
-18.33
-16.53
-14.33
-12.11
-10.24
-8.91
-8.14
-7.85
-7.93
-8.34
-9.14
-10.32
-11.77
-13.16
-13.95
-13.60
-11.70
-8.14
-3.17
2.71
8.89
14.78
19.89
23.90
26.59
27.93
28.00
27.06
25.42
23.44
21.39
19.49
17.92
16.83
16.38
16.70
17.82
19.60
21.76
23.98
25.92
27.30
27.97
27.88
27.08
25.70
23.89
21.76
19.46
17.09
14.83
12.83
11.25
10.07
9.13
8.12
6.72
4.79
2.41
-0.10
-2.31
-3.89
-4.76
-5.09
-5.32
-5.96
-7.45
-9.94
-13.17
-16.47
-18.87
-19.37
-17.19
-12.07
-4.39
4.87
14.34
22.60
28.53
31.57
31.81
29.87
26.64
22.98
19.43
16.19
13.18
10.25
7.38
4.70
2.46
0.88
0.05
-0.07
0.40
1.38
2.86
4.87
7.34
10.03
12.50
14.29
15.11
14.96
14.15
13.06
11.97
10.89
9.65
8.01
5.90
3.42
0.80
-1.71
-3.98
-6.05
-8.03
-10.03
-12.15
-14.49
-17.12
-20.01
-22.95
-25.43
-26.70
-25.97
-22.73
-16.94
-9.09
-0.07
9.17
17.83
25.40
31.66
36.56
40.09
42.25
43.11
42.83
41.72
40.17
38.52
36.99
35.64
34.37
33.11
31.84
30.62
29.52
28.52
27.47
26.18
24.45
22.20
19.45
16.27
12.72
8.81
4.52
-0.11
-5.02
-10.07
-15.15
-20.17
-25.06
-29.70
-33.87
-37.32
-39.84
-41.44
-42.37
-43.06
-44.05
-45.64
-47.80
-49.98
-51.27
-50.62
-47.19
-40.66
-31.33
-20.10
-8.14
3.40
13.67
22.12
28.52
32.83
35.11
35.56
34.55
32.60
30.27
28.03
26.17
24.77
23.84
23.36
23.36
23.85
24.81
26.06
27.29
28.12
28.18
27.23
25.20
22.28
18.77
15.03
11.37
7.91
4.66
1.48
-1.75
-5.17
-8.79
-12.59
-16.46
-20.30
-23.93
-27.18
-29.99
-32.35
-34.39
-36.13
-37.37
-37.55
-35.77
-31.06
-22.65
-10.38
5.14
22.54
39.94
55.44
67.59
75.85
80.61
83.02
84.40
85.68
87.11
88.27
88.57
87.72
86.10
84.57
84.15
85.51
88.77
93.67
99.81
106.93
114.86
123.33
131.62
138.58
142.80
143.25
139.67
132.72
123.74
114.18
105.07
96.72
88.84
80.87
72.31
63.03
53.23
43.29
33.57
24.28
15.50
7.10
-1.20
-9.82
-19.25
-29.89
-41.79
-54.48
-66.95
-77.79
-85.68
-89.68
-89.60
-85.94
-79.73
-72.10
-64.00
-55.98
-48.22
-40.83
-33.98
-28.03
-23.45
-20.52
-19.22
-19.15
-19.72
-20.49
-21.27
-22.06
-22.87
-23.54
-23.72
-23.12
-21.72
-19.87
-18.11
-16.87
-16.21
-15.84
-15.44
-14.86
-14.31
-14.14
-14.63
-15.73
-17.19
-18.74
-20.29
-22.06
-24.33
-27.21
-30.54
-33.91
-37.00
-39.71
-42.17
-44.58
-46.93
-48.99
-50.50
-51.41
-52.03
-52.89
-54.30
-56.00
-57.17
-56.71
-53.82
-48.34
-40.80
-32.12
-23.19
-14.72
-7.17
-0.97
3.47
5.83
6.05
4.50
1.82
-1.26
-4.19
-6.71
-8.74
-10.18
-10.85
-10.53
-9.15
-6.87
-4.08
-1.30
1.09
2.92
4.23
5.24
6.14
7.03
7.90
8.60
8.93
8.73
7.89
6.39
4.36
2.04
-0.24
-2.17
-3.55
-4.39
-4.98
-5.71
-6.94
-8.77
-10.90
-12.70
-13.46
-12.63
-10.01
-5.80
-0.49
5.30
10.98
15.91
19.59
21.65
21.96
20.71
18.22
14.73
10.12
4.00
-4.08
-14.24
-26.08
-38.74
-51.17
-62.35
-71.40
-77.50
-79.83
-77.77
-71.25
-61.01
-48.54
-35.59
-23.54
-13.01
-3.99
3.80
10.40
15.55
18.87
20.12
19.36
16.91
13.01
7.78
1.29
-6.33
-14.70
-23.33
-31.76
-39.65
-46.75
-52.69
-56.91
-58.79
-57.95
-54.42
-48.74
-41.76
-34.34
-27.20
-20.77
-15.33
-11.06
-8.04
-6.30
-5.68
-5.94
-6.76
-7.85
-9.00
-9.98
-10.58
-10.57
-9.80
-8.22
-5.95
-3.30
-0.59
1.83
3.76
5.15
6.01
6.42
6.45
6.10
5.35
4.23
2.80
1.21
-0.40
-1.90
-3.34
-4.86
-6.61
-8.71
-11.11
-13.65
-16.15
-18.53
-20.85
-23.27
-25.85
-28.44
-30.62
-31.75
-31.23
-28.68
-24.11
-17.92
-10.79
-3.47
3.32
9.07
13.48
16.43
17.98
18.29
17.57
16.08
14.14
12.11
10.42
9.44
9.45
10.51
12.48
15.00
17.67
20.20
22.42
24.34
25.98
27.27
28.01
27.91
26.68
24.20
20.66
16.47
12.17
8.20
4.87
2.28
0.40
-0.92
-1.81
-2.51
-3.29
-4.52
-6.51
-9.46
-13.32
-17.70
-21.91
-25.03
-26.17
-24.66
-20.33
-13.53
-5.03
4.21
13.37
21.89
29.53
36.19
41.75
46.06
48.91
50.25
50.24
49.24
47.72
46.10
44.63
43.35
42.17
41.03
39.95
39.03
38.35
37.80
37.05
35.60
33.00
29.06
23.97
18.19
12.22
6.36
0.62
-5.22
-11.40
-17.94
-24.61
-31.04
-36.90
-42.10
-46.70
-50.89
-54.75
-58.30
-61.49
-64.35
-67.02
-69.60
-71.93
-73.43
-73.24
-70.47
-64.64
-55.92
-45.17
-33.64
-22.57
-12.94
-5.24
0.42
4.18
6.33
7.19
7.10
6.43
5.55
4.76
4.31
4.31
4.78
5.77
7.29
9.38
12.02
15.08
18.24
21.11
23.30
24.57
24.89
24.35
23.16
21.50
19.54
17.38
15.06
12.62
10.00
7.15
4.01
0.65
-2.78
-6.04
-8.98
-11.57
-13.91
-16.20
-18.66
-21.38
-24.29
-27.05
-29.15
-29.93
-28.73
-25.11
-19.03
-10.89
-1.51
8.12
17.03
24.56
30.34
34.30
36.59
37.41
37.01
35.69
33.80
31.83
30.34
29.73
30.05
30.88
31.32
30.40
27.48
22.49
16.06
9.16
2.70
-2.78
-7.26
-11.11
-14.73
-18.39
-22.07
-25.55
-28.48
-30.45
-31.07
-29.99
-27.01
-22.18
-15.93
-9.08
-2.73
1.94
4.00
2.90
-1.30
-7.91
-15.72
-23.16
-28.70
-31.12
-29.89
-25.25
-18.19
-10.05
-2.14
4.54
9.49
12.63
14.16
14.41
13.67
12.24
10.41
8.47
6.65
5.20
4.35
4.31
5.27
7.27
10.21
13.75
17.47
20.85
23.49
25.14
25.73
25.32
24.02
22.00
19.42
16.41
13.13
9.72
6.31
2.98
-0.24
-3.35
-6.35
-9.24
-12.02
-14.72
-17.42
-20.33
-23.65
-27.46
-31.56
-35.32
-37.89
-38.34
-36.02
-30.78
-23.05
-13.69
-3.77
5.78
14.23
21.16
26.28
29.51
30.83
30.33
28.25
24.94
20.92
16.73
12.87
9.71
7.48
6.15
5.67
5.91
6.79
8.20
9.96
11.76
13.24
14.02
13.91
12.96
11.44
9.71
8.06
6.59
5.26
3.93
2.49
0.93
-0.68
-2.28
-3.81
-5.31
-6.82
-8.35
-9.80
-11.06
-12.07
-12.99
-14.18
-16.11
-19.02
-22.71
-26.40
-28.92
-29.11
-26.35
-20.88
-13.69
-6.20
0.25
4.78
7.08
7.30
5.79
2.96
-0.85
-5.24
-9.80
-14.08
-17.66
-20.26
-21.73
-22.01
-21.01
-18.63
-14.72
-9.31
-2.73
4.35
10.99
16.34
19.91
21.75
22.46
22.85
23.59
24.95
26.68
28.26
29.19
29.23
28.46
27.20
25.87
24.89
24.68
25.55
27.71
31.05
35.06
38.93
41.82
43.28
43.52
43.37
43.95
46.15
50.15
55.38
60.76
65.20
67.96
68.85
68.09
66.02
62.89
58.82
53.85
48.19
42.21
36.39
31.15
26.76
23.31
20.78
19.13
18.36
18.47
19.38
20.78
22.28
23.45
23.99
23.78
22.88
21.44
19.68
17.75
15.81
13.96
12.31
10.91
9.82
9.04
8.60
8.51
8.82
9.49
10.34
11.03
11.19
10.65
9.67
8.99
9.62
12.51
18.23
26.71
37.27
48.81
60.04
69.70
76.82
80.86
81.92
80.72
78.41
76.02
74.12
72.50
70.32
66.66
61.20
54.68
48.72
45.11
45.02
48.38
54.02
60.21
65.47
68.88
70.05
68.68
64.22
55.90
43.18
26.18
5.87
-16.11
-38.14
-58.96
-77.82
-94.15
-107.29
-116.47
-121.20
-121.71
-119.10
-115.19
-111.80
-110.10
-110.36
-112.07
-114.40
-116.46
-117.56
-117.09
-114.51
-109.35
-101.21
-89.75
-74.66
-55.77
-33.39
-8.64
16.51
39.64
58.61
72.28
80.70
84.78
85.49
83.26
78.04
69.71
58.74
46.27
33.88
22.95
14.29
8.04
4.04
2.14
2.29
4.48
8.57
14.17
20.69
27.47
33.76
38.80
41.70
41.44
37.13
28.47
15.98
0.99
-14.70
-29.41
-42.10
-52.73
-61.94
-70.66
-79.41
-88.06
-95.84
-101.75
-104.93
-105.03
-102.20
-96.87
-89.57
-80.72
-70.70
-59.87
-48.79
-38.11
-28.47
-20.37
-13.96
-9.12
-5.50
-2.79
-0.81
0.44
0.87
0.54
-0.13
-0.54
-0.05
1.56
4.04
6.64
8.47
8.82
7.36
4.29
0.01
-4.97
-10.39
-16.14
-22.38
-29.39
-37.63
-47.56
-59.52
-73.62
-89.51
-106.34
-122.66
-136.65
-146.42
-150.60
-148.90
-142.34
-133.09
-123.74
-116.30
-111.31
-107.59
-102.77
-94.36
-81.02
-63.12
-42.68
-22.35
-4.44
9.90
20.66
28.51
34.17
37.94
39.87
40.28
40.32
41.88
46.97
56.58
69.83
84.10
96.07
103.33
105.32
103.26
99.05
94.16
89.30
84.90
81.76
81.02
83.34
87.81
91.57
90.70
81.99
64.58
40.58
14.43
-8.60
-23.62
-27.12
-17.43
4.97
36.99
73.09
106.17
129.41
138.10
131.05
110.49
81.07
48.25
16.90
-9.65
-29.83
-43.82
-53.14
-59.92
-66.05
-72.41
-78.67
-84.01
-88.47
-93.89
-103.27
-119.09
-141.00
-165.00
-184.58
-193.30
-187.17
-165.33
-129.31
-81.79
-26.38
31.79
85.29
125.12
143.48
137.09
109.35
69.31
28.25
-4.68
-25.04
-33.37
-33.21
-28.89
-24.08
-21.33
-22.27
-27.85
-38.20
-52.48
-68.99
-85.55
-99.82
-110.10
-115.53
-116.34
-113.57
-108.65
-102.73
-96.19
-88.54
-78.81
-66.35
-51.30
-34.78
-18.59
-4.54
6.18
13.25
17.13
18.75
19.09
18.89
18.53
17.99
17.06
15.50
13.33
10.97
9.20
8.96
11.10
16.06
23.64
32.95
42.41
50.23
54.82
55.35
52.00
45.83
38.29
30.68
23.76
17.76
12.56
8.13
4.63
2.35
1.46
1.74
2.63
3.38
3.36
2.20
-0.15
-3.45
-7.28
-11.03
-14.04
-15.61
-15.21
-12.57
-7.82
-1.44
5.81
13.12
19.74
25.16
29.10
31.56
32.72
32.81
32.11
30.88
29.31
27.66
26.22
25.34
25.27
26.17
27.95
30.29
32.83
35.19
37.12
38.46
39.13
39.06
38.25
36.80
34.96
33.10
31.46
30.04
28.55
26.53
23.66
19.92
15.59
11.00
6.32
1.39
-4.04
-10.01
-16.01
-21.09
-24.23
-24.84
-23.12
-19.90
-16.26
