1581434408.00
64.000000
-0.00
-0.00
-0.00
-0.00
-0.00
-0.00
-0.00
-0.00
-0.00
-0.00
0.00
0.01
0.01
-0.00
-0.03
-0.05
-0.05
0.00
0.13
0.36
0.66
1.01
1.37
1.72
2.06
2.40
2.79
3.24
3.80
4.42
5.06
5.66
6.20
6.68
7.15
7.68
8.31
9.14
10.09
11.04
11.88
12.56
13.14
13.76
14.65
15.96
17.91
20.32
22.90
25.38
27.58
29.57
31.68
34.32
37.81
42.54
48.15
54.10
59.83
64.97
69.58
74.14
79.34
85.71
93.76
103.00
112.62
121.73
129.77
136.75
143.30
150.75
157.77
166.64
177.95
191.79
206.97
220.57
228.25
225.36
208.53
176.87
132.76
80.05
23.07
-34.94
-92.44
-149.16
-205.23
-260.37
-313.74
-363.88
-409.84
-450.91
-486.50
-515.72
-537.20
-549.18
-549.89
-538.27
-514.06
-478.48
-433.63
-382.14
-326.64
-269.38
-212.08
-156.02
-102.22
-51.54
-4.97
36.61
72.56
102.59
126.85
145.84
160.28
170.86
178.22
182.75
184.74
184.42
182.07
178.03
172.71
166.53
159.84
152.87
145.79
138.66
131.52
124.42
117.43
110.62
104.05
97.78
91.84
86.25
81.00
76.12
71.61
67.48
63.74
60.38
57.41
54.81
52.59
50.74
49.27
48.18
47.45
47.08
47.02
47.20
47.52
47.84
47.98
47.74
46.87
45.18
42.48
38.64
33.58
27.28
19.83
11.40
2.23
-7.35
-16.97
-26.26
-34.83
-42.38
-48.63
-53.37
-56.49
-57.92
-57.66
-55.77
-52.38
-47.70
-42.00
-35.59
-28.73
-21.70
-14.67
-7.76
-1.03
5.45
11.49
16.83
21.10
23.98
25.22
24.79
22.91
20.01
16.61
13.16
9.96
7.16
4.86
3.05
2.02
2.27
4.39
8.82
15.52
23.86
32.73
40.94
47.36
51.58
54.01
55.57
57.12
58.93
60.42
60.29
57.18
50.05
39.20
26.23
13.47
3.06
-4.02
-8.59
-13.08
-18.86
-28.02
-41.91
-60.21
-80.71
-99.53
-112.14
-114.80
-105.85
-86.73
-62.29
-39.37
-24.68
-22.32
-31.83
-47.81
-61.51
-64.07
-49.81
-18.68
24.14
70.48
112.23
143.94
163.64
171.98
170.55
160.75
143.95
122.51
100.36
82.42
73.16
74.83
86.54
104.54
123.58
138.49
145.68
143.47
131.97
112.47
86.70
56.13
21.50
-17.20
-60.12
-105.90
-151.06
-190.03
-216.91
-228.44
-226.60
-218.94
-216.06
-227.20
-255.13
-295.52
-338.21
-371.14
-384.36
-373.26
-339.65
-290.97
-238.77
-194.77
-170.28
-172.82
-203.91
-257.61
-322.00
-382.23
-425.00
-442.45
-431.48
-395.23
-339.60
-270.29
-190.46
-101.07
-2.77
105.58
211.74
308.05
386.23
441.00
470.22
477.10
469.21
455.04
439.93
423.76
405.32
383.00
357.91
333.20
312.22
295.97
282.40
267.19
245.76
218.20
185.30
150.07
116.03
85.83
60.25
38.13
16.72
-6.94
-33.39
-61.82
-90.03
-115.90
-138.23
-157.42
-175.45
-192.58
-209.87
-226.89
-242.25
-253.53
-258.28
-254.68
-241.98
-215.40
-173.56
-118.71
-55.72
9.13
70.30
124.10
168.93
204.42
230.90
248.46
257.42
258.77
254.13
245.51
234.83
223.75
213.97
205.00
195.82
185.70
174.67
163.49
153.38
145.66
141.40
140.85
142.78
145.41
147.11
146.81
144.13
138.93
130.90
122.43
114.62
105.82
94.09
77.95
57.09
32.45
5.80
-20.65
-44.67
-64.65
-83.00
-102.70
-126.25
-154.68
-187.35
-222.51
-257.98
-291.54
-321.79
-352.82
-389.49
-435.89
-493.76
-562.41
-639.95
-724.81
-815.99
-884.67
-908.59
-874.80
-785.06
-653.31
-498.64
-339.76
-192.39
-67.47
30.27
97.89
137.71
155.59
158.84
154.03
145.87
137.50
129.93
126.38
125.68
125.29
122.36
115.22
103.72
89.16
73.61
59.62
49.70
42.98
37.68
31.88
24.52
15.81
7.21
-0.81
-7.09
-10.36
-11.14
-10.55
-9.86
-10.00
-11.30
-13.56
-16.33
-18.77
-20.08
-20.27
-19.73
-18.99
-18.47
-18.40
-18.79
-19.53
-20.25
-20.60
-20.43
-19.72
-18.58
-17.16
-15.63
-14.11
-12.72
-11.42
-10.17
-8.95
-7.80
-6.72
-5.73
-4.86
-4.13
-3.60
-3.25
-3.08
-3.08
-3.25
-3.57
-4.02
-4.58
-5.20
-5.86
-6.53
-7.14
-7.68
-8.13
-8.49
-8.76
-8.95
-9.08
-9.17
-9.23
-9.28
-9.32
-9.33
-9.31
-9.24
-9.08
-8.84
-8.50
-8.07
-7.56
-7.02
-6.46
-5.94
-5.50
-5.17
-5.00
-4.98
-5.13
-5.43
-5.88
-6.44
-7.10
-7.86
-8.70
-9.63
-10.65
-11.77
-12.99
-14.33
-15.77
-17.31
-18.96
-20.67
-22.45
-24.25
-26.02
-27.73
-29.31
-30.73
-31.99
-33.08
-34.02
-34.81
-35.40
-35.70
-35.57
-34.85
-33.34
-30.92
-27.45
-22.89
-17.22
-10.47
-2.72
5.91
15.22
24.90
34.49
43.48
51.31
57.53
61.88
64.39
65.34
65.18
64.40
63.39
62.38
61.47
60.71
60.31
60.59
62.02
65.06
69.91
76.42
84.06
92.09
99.85
107.08
114.04
121.40
129.99
140.40
152.63
166.17
180.13
193.70
206.47
218.62
230.86
244.25
259.95
279.01
301.86
327.87
354.89
379.33
396.96
404.15
399.15
382.75
358.03
329.20
300.21
273.72
250.75
231.00
213.56
197.50
182.21
167.42
153.04
139.03
125.27
111.60
97.90
84.31
71.36
59.79
50.27
42.99
37.40
32.38
26.70
19.69
11.59
3.49
-2.94
-6.51
-7.08
-5.66
-3.97
-3.56
-5.13
-8.24
-11.63
-13.73
-13.57
-11.19
-7.52
-3.78
-0.79
1.46
3.69
6.84
11.97
19.23
27.77
36.21
43.39
48.96
53.50
58.03
63.31
71.06
81.93
95.66
111.34
127.88
144.40
160.39
175.50
189.22
204.61
224.22
249.68
280.95
316.36
353.16
388.59
420.44
447.25
474.32
507.00
549.20
601.79
662.10
725.04
785.04
837.95
881.89
925.50
978.51
1048.49
1137.22
1239.08
1343.02
1436.88
1511.85
1514.49
1410.72
1186.50
855.23
455.13
35.29
-361.04
-706.07
-987.89
-1206.17
-1359.41
-1450.29
-1485.36
-1475.27
-1433.87
-1375.64
-1312.68
-1252.89
-1200.32
-1150.16
-1096.87
-1036.58
-968.85
-896.84
-825.76
-760.47
-703.98
-657.28
-616.10
-575.96
-533.59
-488.05
-440.83
-394.84
-352.91
-316.81
-287.11
-261.63
-237.98
-214.31
-189.90
-165.25
-141.59
-120.17
-101.77
-86.64
-73.91
-62.57
-51.81
-41.20
-30.81
-20.97
-12.08
-4.38
2.08
7.38
11.74
15.38
18.47
21.16
23.52
25.54
27.15
28.22
28.56
28.05
26.55
24.00
20.44
15.99
10.86
5.35
-0.22
-5.52
-10.23
-14.11
-17.02
-18.91
-19.81
-19.84
-19.14
-17.90
-16.28
-14.42
-12.40
-10.30
-8.17
-6.05
-3.93
-1.80
0.38
2.61
4.90
7.28
9.80
12.34
14.90
17.49
20.17
22.97
25.91
29.02
32.35
36.02
39.82
43.71
47.70
51.85
56.20
60.75
65.53
70.57
76.00
81.52
87.03
92.58
98.26
104.11
110.06
115.98
121.73
127.35
132.30
136.42
139.72
142.17
143.53
143.05
139.44
130.59
119.04
105.44
90.51
75.06
59.81
45.18
31.10
17.10
2.57
-12.82
-29.61
-47.53
-65.94
-84.05
-101.41
-118.04
-134.37
-151.04
-168.68
-188.44
-211.07
-236.55
-263.59
-289.36
-309.88
-321.14
-320.58
-308.13
-286.74
-260.89
-235.00
-212.04
-193.00
-177.30
-163.71
-151.26
-139.38
-127.97
-116.70
-104.90
-91.75
-76.67
-59.68
-41.50
-23.40
-6.70
7.57
19.10
28.39
36.36
43.93
51.51
58.79
64.93
69.09
70.93
70.90
70.03
69.42
69.64
70.45
71.01
70.34
67.98
64.21
59.93
56.13
53.30
51.19
48.92
45.58
40.76
34.87
28.94
24.03
20.60
18.26
15.95
12.58
7.63
1.36
-5.39
-11.69
-17.01
-21.27
-24.63
-27.11
-28.32
-27.64
-24.51
-18.90
-11.39
-3.06
4.92
11.68
16.99
21.12
24.65
28.01
31.27
34.11
36.02
36.63
36.08
34.96
34.01
33.81
34.36
35.11
35.23
34.09
31.59
28.22
24.84
22.23
20.71
19.94
19.17
17.61
14.84
11.04
6.83
3.00
0.01
-2.19
-4.15
-6.69
-10.43
-15.54
-21.59
-27.73
-33.06
-36.93
-39.12
-39.79
-39.18
-37.36
-34.19
-29.37
-22.81
-14.86
-6.42
1.43
7.85
12.58
16.03
18.92
21.81
24.80
27.45
29.19
29.67
29.10
28.12
27.38
27.21
27.34
27.13
25.93
23.53
20.31
17.03
14.38
12.68
11.60
10.48
8.67
5.95
2.61
-0.67
-3.26
-5.00
-6.30
-8.09
-11.26
-16.26
-22.70
-29.45
-35.02
-38.16
-38.31
-35.78
-31.47
-26.39
-21.27
-16.29
-11.30
-6.11
-0.77
4.35
8.74
12.06
14.35
16.00
17.59
19.43
21.49
23.36
24.49
24.59
23.72
22.34
21.03
20.16
19.67
19.08
17.73
15.13
11.35
6.92
2.70
-0.59
-2.71
-4.02
-5.32
-7.33
-10.43
-14.41
-18.72
-22.80
-26.41
-29.60
-32.49
-34.95
-36.44
-36.24
-33.81
-29.17
-22.93
-16.08
-9.56
-3.91
0.78
4.76
8.31
11.50
14.15
15.95
16.74
16.56
15.79
14.92
14.38
14.31
14.53
14.64
14.31
13.48
12.44
11.63
11.44
11.93
12.81
13.54
13.65
12.84
11.12
8.63
5.55
1.92
-2.34
-7.34
-13.08
-19.25
-25.21
-30.13
-33.20
-33.95
-32.44
-29.16
-24.84
-20.09
-15.25
-10.36
-5.44
-0.59
3.84
7.42
9.88
11.18
11.60
11.57
11.50
11.66
12.04
12.43
12.46
11.77
10.21
7.96
5.49
3.32
1.71
0.46
-1.00
-3.26
-6.58
-10.65
-14.81
-18.45
-21.43
-24.20
-27.47
-31.71
-36.69
-41.45
-44.69
-45.35
-43.08
-38.41
-32.33
-25.90
-19.69
-13.73
-7.72
-1.45
4.86
10.57
14.91
17.36
17.98
17.42
16.63
16.40
16.96
17.93
18.52
17.90
15.65
11.95
7.45
2.98
-0.87
-3.95
-6.60
-9.42
-12.96
-17.42
-22.72
-28.59
-34.80
-41.26
-47.84
-54.25
-59.82
-63.61
-64.69
-62.58
-57.44
-50.11
-41.69
-33.19
-25.11
-17.42
-9.79
-1.99
5.81
13.05
19.00
23.12
25.34
26.07
26.09
26.02
26.18
26.42
26.31
25.42
23.56
20.97
18.07
15.32
12.94
10.80
8.50
5.59
1.86
-2.61
-7.46
-12.35
-17.20
-22.22
-27.75
-33.85
-39.99
-45.05
-47.65
-46.72
-42.00
-34.18
-24.59
-14.65
-5.29
3.25
11.25
19.03
26.56
33.38
38.80
42.31
43.89
44.09
43.73
43.51
43.67
43.91
43.66
42.41
40.04
36.88
33.52
30.45
27.84
25.42
22.69
19.20
14.80
9.64
4.16
-1.25
-6.44
-11.57
-17.13
-23.53
-30.88
-38.63
-45.67
-50.66
-52.45
-50.65
-45.71
-38.74
-30.87
-22.85
-14.71
-6.09
3.33
13.29
22.94
31.13
37.03
40.53
42.30
43.37
44.56
46.10
47.57
48.26
47.71
45.99
43.66
41.52
40.07
39.29
38.62
37.30
34.71
30.77
25.91
20.82
16.16
12.14
8.54
4.80
0.45
-4.71
-10.56
-16.82
-23.27
-29.86
-36.50
-42.91
-48.37
-51.85
-52.33
-49.25
-42.80
-33.89
-23.84
-13.82
-4.53
3.86
11.54
18.71
25.37
31.23
35.91
39.14
41.02
41.97
42.56
43.23
44.10
44.89
45.17
44.54
42.95
40.69
38.30
36.26
34.72
33.36
31.58
28.77
24.70
19.64
14.24
9.24
5.07
1.71
-1.34
-4.67
-8.76
-13.78
-19.57
-25.86
-32.27
-38.36
-43.58
-47.24
-48.65
-47.34
-43.19
-36.57
-28.15
-18.74
-9.07
0.29
8.92
16.57
23.06
28.33
32.48
35.67
38.16
40.15
41.77
43.11
44.21
45.05
45.57
45.64
45.07
43.72
41.51
38.53
35.03
31.32
27.66
24.15
20.75
17.30
13.70
9.98
6.34
2.97
-0.08
-3.04
-6.36
-10.55
-15.90
-22.34
-29.37
-36.25
-42.19
-46.57
-48.97
-49.20
-47.25
-43.31
-37.68
-30.79
-23.12
-15.14
-7.32
-0.15
5.90
10.46
13.46
15.19
16.26
17.39
19.02
21.11
23.15
24.49
24.66
23.66
21.89
19.87
17.91
15.97
13.76
11.00
7.67
4.06
0.62
-2.31
-4.72
-6.88
-9.26
-12.14
-15.57
-19.30
-23.05
-26.74
-30.53
-34.67
-39.15
-43.48
-46.62
-47.39
-44.94
-39.10
-30.57
-20.57
-10.47
-1.35
6.18
12.07
16.49
19.74
22.02
23.44
24.10
24.23
24.23
24.53
25.45
26.87
28.27
28.88
28.02
25.46
21.50
16.87
12.37
8.49
5.26
2.34
-0.77
-4.45
-8.79
-13.60
-18.55
-23.44
-28.33
-33.54
-39.37
-45.81
-52.21
-57.49
-60.40
-60.16
-56.75
-50.89
-43.65
-35.92
-28.10
-20.13
-11.83
-3.28
5.08
12.50
18.37
22.38
24.72
25.94
26.73
27.56
28.61
29.62
30.15
29.74
28.19
25.64
22.49
19.18
15.94
12.73
9.31
5.43
1.08
-3.51
-7.99
-12.16
-16.07
-20.17
-25.06
-31.20
-38.62
-46.74
-54.42
-60.33
-63.40
-63.17
-59.87
-54.22
-47.02
-38.90
-30.11
-20.73
-10.91
-1.04
8.30
16.49
23.11
28.14
31.79
34.45
36.39
37.73
38.39
38.25
37.30
35.72
33.84
32.00
30.33
28.69
26.68
23.91
20.22
15.77
11.02
6.36
2.00
-2.25
-6.75
-11.76
-17.38
-23.50
-29.95
-36.62
-43.39
-49.90
-55.49
-59.20
-60.08
-57.56
-51.78
-43.48
-33.71
-23.44
-13.30
-3.54
5.78
14.56
22.56
29.46
35.02
39.14
41.90
43.52
44.25
44.37
44.08
43.62
43.07
42.48
41.73
40.61
38.97
36.76
34.05
30.95
27.56
23.85
19.74
15.17
10.23
5.18
0.30
-4.26
-8.64
-13.29
-18.83
-25.68
-33.73
-42.19
-49.68
-54.72
-56.22
-53.92
-48.40
-40.76
-32.10
-23.07
-13.84
-4.32
5.41
14.88
23.29
29.91
34.38
36.96
38.35
39.29
40.18
40.99
41.35
40.83
39.32
37.10
34.69
32.55
30.89
29.51
27.93
25.67
22.49
18.48
14.06
9.71
5.70
2.02
-1.65
-5.70
-10.40
-15.77
-21.64
-27.68
-33.58
-38.96
-43.34
-46.16
-46.81
-44.85
-40.26
-33.37
-24.88
-15.62
-6.39
2.12
9.40
15.13
19.20
21.75
23.15
23.80
24.03
23.98
23.64
22.97
22.08
21.19
20.49
19.98
19.33
17.97
15.44
11.57
6.69
1.39
-3.64
-8.01
-11.71
-14.99
-18.23
-21.64
-25.33
-29.36
-33.92
-39.23
-45.38
-52.02
-58.31
-62.96
-64.75
-62.96
-57.66
-49.67
-40.16
-30.19
-20.29
-10.49
-0.65
9.17
18.44
26.24
31.70
34.36
34.53
33.10
31.27
30.01
29.74
30.33
31.23
31.89
31.96
31.33
30.04
28.08
25.30
21.50
16.60
10.75
4.45
-1.64
-6.92
-11.13
-14.44
-17.44
-20.89
-25.42
-31.27
-38.15
-45.29
-51.60
-55.99
-57.67
-56.32
-52.16
-45.72
-37.59
-28.23
-17.97
-7.09
3.91
14.28
23.10
29.62
33.58
35.37
35.87
36.09
36.68
37.69
38.64
38.83
37.89
35.97
33.72
31.92
30.96
30.71
30.48
29.51
27.33
24.01
20.10
16.32
13.18
10.75
8.67
6.31
3.02
-1.60
-7.64
-14.84
-22.63
-30.18
-36.53
-40.69
-41.86
-39.63
-34.07
-25.69
-15.28
-3.72
8.19
19.79
30.53
39.96
47.69
53.44
57.10
58.72
58.55
57.09
55.11
53.56
53.30
54.77
57.59
60.49
61.72
59.90
54.80
47.70
41.08
37.78
40.00
48.76
63.93
84.88
110.94
141.50
175.82
212.60
250.02
286.06
319.23
348.91
375.16
397.82
415.60
425.81
424.87
409.77
379.38
335.16
280.71
220.58
158.96
98.85
42.22
-9.39
-54.24
-90.20
-115.26
-128.51
-130.70
-124.37
-113.12
-100.67
-90.18
-83.69
-82.57
-87.74
-100.16
-120.70
-149.95
-187.92
-234.35
-289.24
-353.01
-425.62
-505.25
-587.03
-662.81
-722.84
-758.96
-767.54
-751.28
-718.03
-677.44
-637.32
-601.73
-570.73
-542.05
-513.05
-481.62
-446.37
-405.88
-358.11
-302.43
-242.12
-185.41
-143.42
-125.83
-135.21
-164.92
-200.87
-225.50
-226.19
-200.42
-155.49
-103.13
-53.60
-10.26
28.64
66.64
109.11
157.92
210.11
259.74
301.68
333.05
356.65
376.19
394.22
416.51
446.36
482.18
518.25
548.86
569.91
584.69
597.54
611.55
635.25
675.43
733.31
803.79
878.66
947.39
1005.09
1047.11
1027.39
920.05
736.30
522.18
327.12
193.65
107.35
50.15
8.99
-23.58
-46.56
-56.10
-53.27
-45.59
-42.39
-52.00
-73.06
-101.30
-132.18
-156.96
-169.22
-168.64
-161.11
-154.59
-156.65
-167.53
-185.10
-206.68
-226.55
-240.05
-246.12
-247.63
-248.92
-254.44
-264.88
-280.21
-300.46
-323.78
-347.28
-367.52
-380.72
-382.92
-371.52
-345.57
-307.85
-264.47
-222.28
-186.88
-161.44
-146.25
-139.08
-136.43
-134.71
-131.24
-124.88
-116.09
-106.59
-98.56
-93.57
-91.86
-92.16
-93.30
-93.09
-88.94
-78.85
-62.49
-41.72
-20.06
-1.74
9.69
9.67
-3.11
-26.42
-55.61
-85.70
-112.95
-135.25
-151.80
-162.85
-173.48
-187.28
-205.17
-226.18
-249.67
-276.37
-307.45
-342.33
-376.97
-409.60
-434.83
-445.86
-438.08
-412.29
-374.46
-332.19
-291.11
-223.07
-120.24
5.02
126.81
222.59
283.17
311.46
317.79
313.15
310.99
314.10
321.20
328.20
329.42
318.33
290.02
242.95
182.70
121.38
69.16
35.35
25.06
37.44
65.44
98.16
124.66
137.31
133.40
112.50
79.65
43.92
14.82
-1.92
-6.88
-5.60
-4.82
-8.43
-17.04
-27.46
-35.55
-39.43
-40.72
-42.69
-47.05
-51.87
-52.39
-44.50
-26.93
-2.21
24.78
49.45
69.64
85.88
99.81
111.85
120.15
121.39
113.43
97.62
79.19
64.86
58.92
60.51
63.61
60.65
46.95
23.47
-3.96
-28.33
-45.58
-56.38
-64.47
-73.07
-82.26
-89.32
-91.75
-90.47
-90.46
-98.05
-116.55
-143.29
-170.31
-188.28
-191.16
-179.00
-157.17
-133.32
-113.58
-100.47
-93.12
-89.20
-86.69
-84.59
-82.66
-80.53
-77.32
-71.72
-62.48
-48.66
-29.64
-5.06
25.10
59.97
97.46
134.44
167.85
195.80
218.37
237.33
255.09
273.58
293.93
317.03
344.01
375.79
411.46
446.58
472.94
480.83
463.06
418.50
353.10
277.49
202.60
135.67
78.62
28.85
-18.23
-66.76
-119.03
-174.99
-232.27
-286.37
-331.23
-360.64
-370.30
-359.35
-331.02
-291.59
-247.97
-205.30
-165.88
-129.88
-96.89
-67.07
-40.85
-18.47
0.84
18.97
38.48
61.69
90.19
124.46
163.71
206.44
248.85
284.80
306.99
309.37
289.80
250.62
197.27
135.52
71.43
8.40
-52.12
-108.68
-157.90
-194.73
-214.71
-216.81
-204.37
-179.16
-144.16
-102.93
-59.15
-15.35
27.64
69.87
111.07
150.13
192.69
243.08
301.74
364.82
426.94
484.61
537.06
585.54
632.48
689.94
766.74
863.04
968.43
1066.43
1141.68
1185.14
1195.89
1121.01
937.97
662.08
344.33
42.32
-207.70
-395.81
-528.07
-615.67
-669.90
-691.47
-682.25
-648.66
-602.01
-554.00
-512.22
-479.29
-454.52
-436.33
-416.44
-389.20
-353.92
-315.67
-281.22
-255.21
-239.71
-234.16
-236.97
-241.78
-243.43
-239.69
-231.83
-222.70
-214.60
-209.66
-208.62
-211.71
-216.76
-222.00
-227.06
-233.56
-244.45
-256.45
-269.08
-281.58
-293.89
-306.48
-321.13
-339.83
-363.29
-388.18
-407.77
-415.26
-404.37
-373.22
-325.76
-270.09
-214.66
-165.55
-123.35
-85.32
-48.85
-10.64
30.93
75.14
119.56
161.36
197.30
226.18
247.32
249.41
224.64
173.69
106.12
34.48
-25.59
-73.94
-112.32
-141.41
-160.92
-169.13
-163.15
-141.63
-105.72
-58.37
-4.03
54.44
115.32
176.84
238.60
300.70
363.36
426.90
491.35
554.77
613.36
660.79
688.02
687.21
654.47
591.97
507.96
414.38
323.08
243.06
179.55
132.59
99.35
75.83
58.71
45.98
36.23
27.75
10.00
-22.47
-68.74
-120.82
-168.23
-203.31
-224.24
-237.25
-249.50
-265.90
-285.97
-305.70
-316.70
-312.85
-292.19
-257.57
-215.32
-172.03
-132.60
-97.88
-66.26
-35.27
-3.72
28.05
58.30
84.25
103.26
113.12
113.37
104.84
89.50
69.61
47.47
24.91
2.60
-19.26
-40.73
-61.58
-81.88
-102.38
-124.77
-150.82
-181.41
-216.31
-253.17
-287.86
-315.72
-333.30
-339.82
-337.02
-327.82
-314.83
-299.96
-282.72
-260.34
-228.99
-185.36
-128.00
-57.35
24.64
114.70
206.79
288.50
345.03
366.61
354.08
317.76
272.08
229.74
201.61
185.34
175.07
165.73
154.80
142.40
129.98
119.55
111.11
104.55
97.47
87.07
71.00
47.91
17.70
-18.24
-56.35
-90.60
-114.22
-122.71
-113.99
-88.98
-52.51
-11.19
21.34
30.20
8.59
-38.57
-100.29
-166.39
-228.61
-280.87
-319.37
-336.49
-327.73
-291.33
-229.82
-151.36
-67.61
9.71
72.19
116.75
145.32
162.34
172.85
179.47
181.64
177.39
165.53
147.16
125.05
102.29
80.29
59.31
38.71
17.95
-2.29
-20.02
-31.95
-34.99
-27.53
-10.75
12.49
38.15
62.11
81.14
93.06
97.86
97.39
94.95
93.50
95.75
102.96
114.40
126.98
130.21
113.19
69.19
0.61
-82.23
-164.93
-237.11
-295.78
-340.78
-373.71
-395.90
-408.01
-404.32
-382.07
-340.51
-281.68
-210.33
-133.20
-58.15
8.73
64.39
108.93
143.55
170.30
190.45
204.24
211.38
211.34
205.08
194.67
182.57
169.72
156.53
142.13
125.44
106.32
85.94
67.84
55.99
52.91
58.06
69.61
84.30
98.75
110.69
118.98
125.02
130.68
137.18
144.62
154.07
166.22
180.85
196.50
209.96
218.95
221.49
216.35
194.64
154.25
100.53
44.13
-0.25
-31.82
-52.89
-65.60
-71.51
-71.53
-66.09
-57.45
-49.54
-46.45
-51.07
-61.93
-75.02
-85.97
-91.73
-90.32
-82.10
-69.28
-54.91
-42.14
-31.95
-24.13
-18.21
-13.84
-10.17
-6.69
-3.26
-0.12
2.08
3.50
4.48
5.25
5.95
7.02
8.99
12.32
17.23
23.48
30.70
37.98
43.98
47.29
47.12
43.43
36.85
28.34
18.59
8.08
-2.96
-14.33
-25.61
-36.21
-45.58
-53.42
-59.63
-64.06
-66.24
-65.38
-60.82
-52.51
-41.39
-29.37
-18.65
-11.02
-7.22
-6.84
-8.69
-11.54
-14.66
-17.98
-21.85
-26.51
-31.85
-37.43
-42.77
-47.62
-51.97
-55.72
-58.27
-58.49
-54.92
-46.74
-34.32
-19.58
-5.44
5.14
10.36
10.12
5.95
0.11
-5.34
-9.20
-11.12
-11.05
-8.50
-2.51
7.79
22.04
37.97
51.28
56.70
49.63
27.62
-8.79
-56.23
-109.22
-161.16
-205.46
-236.74
-252.06
-251.80
-239.68
-221.47
-203.01
-188.11
-177.58
-169.63
-161.52
-151.18
-138.07
-122.91
-106.80
-90.62
-75.04
-61.17
-50.81
-45.89
-47.50
-55.08
-66.78
-80.33
-94.13
-107.37
-119.02
-126.63
-126.13
-113.15
-85.48
-45.30
0.57
42.64
72.36
85.38
82.84
70.27
54.86
42.65
36.79
37.41
42.51
49.46
56.09
61.33
65.20
68.37
71.55
74.99
78.37
81.01
82.50
83.10
83.91
86.72
93.23
104.33
119.54
137.14
154.60
169.46
179.86
184.88
184.42
178.91
168.95
155.21
138.52
120.04
101.35
84.24
70.25
60.28
54.19
51.08
49.56
48.20
45.83
41.53
34.77
25.38
13.71
0.62
-12.67
-24.89
-35.12
-43.05
-48.94
-53.41
-57.14
-60.62
-64.08
-67.60
-71.18
-74.81
-78.45
-81.86
-84.67
-86.28
-86.05
-83.55
-78.65
-71.75
-63.65
-55.34
-47.64
-40.86
-34.75
-28.56
-21.50
-13.07
-3.43
6.62
15.89
23.15
27.54
28.86
27.59
24.71
21.41
18.76
17.41
17.46
18.53
20.02
21.42
22.51
23.36
24.15
24.95
25.55
25.48
24.18
21.28
16.77
10.96
4.51
-1.93
-7.76
-12.57
-16.21
-18.70
-20.24
-21.08
-21.53
-21.85
-22.27
-22.90
-23.73
-24.61
-25.29
-25.54
-25.25
-24.55
-23.69
-22.96
-22.45
-21.98
-21.12
-19.32
-16.18
-11.62
-5.95
0.17
5.91
10.51
13.58
15.29
16.38
18.02
21.44
27.58
36.75
48.55
61.92
75.39
87.19
95.55
99.15
97.81
92.99
88.00
87.30
95.05
113.21
140.36
171.59
200.14
219.66
226.46
220.25
203.60
180.21
153.33
125.04
96.60
69.42
45.62
27.92
18.67
18.81
27.22
40.99
56.48
70.42
80.64
85.83
85.02
76.88
59.74
32.24
-5.65
-52.03
-103.32
-155.43
-205.11
-250.74
-292.10
-329.23
-361.26
-385.96
-400.20
-401.28
-388.11
-361.67
-324.68
-280.67
-233.05
-184.58
-137.26
-92.52
-51.42
-14.76
16.87
43.33
64.89
82.35
96.93
110.01
122.88
136.27
150.13
163.60
175.15
183.08
186.03
183.47
175.94
164.99
152.72
141.25
132.02
125.38
120.39
115.15
107.43
95.50
78.83
58.43
36.61
16.37
0.45
-9.41
-12.85
-10.92
-5.67
0.53
5.53
7.91
7.17
3.59
-2.07
-8.88
-16.04
-23.08
-29.81
-36.29
-42.83
-49.84
-57.72
-66.61
-76.12
-85.32
-92.97
-97.93
-99.71
-98.63
-95.74
-92.37
-89.76
-88.62
-89.02
-90.55
-92.48
-94.04
-94.59
-93.85
-91.94
-89.26
-86.42
-83.93
-82.10
-80.89
-80.06
-79.20
-77.96
-76.05
-73.34
-69.83
-65.61
-60.79
-55.41
-49.44
-42.85
-35.67
-28.14
-20.68
-13.84
-8.10
-3.69
-0.58
1.48
2.84
3.82
4.69
5.75
7.32
9.72
13.12
17.39
22.14
26.77
30.75
33.78
35.87
37.26
38.19
38.75
38.75
37.81
35.53
31.70
26.44
20.24
13.74
7.51
1.80
-3.56
-8.95
-14.72
-20.80
-26.56
-30.96
-32.97
-32.03
-28.38
-23.03
-17.27
-12.23
-8.16
-4.38
0.54
8.22
19.78
35.30
53.67
72.95
90.87
105.51
115.62
120.73
121.04
117.27
110.67
102.96
95.95
90.75
87.16
83.56
77.65
67.78
54.02
38.35
23.54
11.69
3.05
-3.94
-11.53
-21.25
-33.06
-45.72
-57.86
-68.98
-79.75
-91.31
-104.11
-117.32
-128.83
-136.17
-137.58
-132.99
-124.07
-113.66
-104.66
-99.04
-97.40
-98.98
-102.32
-105.79
-108.18
-108.94
-108.21
-106.76
-105.69
-106.13
-108.84
-113.99
-121.26
-130.15
-140.44
-152.44
-166.79
-183.88
-203.16
-223.01
-241.00
-254.62
-261.86
-261.47
-252.83
-235.80
-210.76
-178.93
-142.46
-104.13
-66.76
-32.42
-2.19
23.44
43.91
58.20
65.17
64.58
57.98
48.75
41.08
38.39
42.19
51.87
65.63
81.65
98.78
116.46
134.06
150.34
163.46
171.67
174.14
171.58
166.13
160.68
157.84
159.08
164.34
172.14
180.16
186.10
188.46
187.05
182.92
177.82
173.42
170.65
169.50
169.37
169.67
170.34
171.90
174.99
179.73
185.21
189.51
190.34
185.94
175.93
161.62
145.54
130.52
118.67
110.72
106.06
103.22
100.66
97.41
93.31
88.88
84.92
82.13
80.75
80.46
80.37
79.32
76.18
70.29
61.77
51.63
41.48
32.97
27.14
23.97
22.36
20.74
18.06
14.73
13.10
17.03
30.82
57.61
98.04
149.26
205.20
257.70
298.66
322.13
326.05
312.76
288.15
259.77
234.53
216.88
207.99
205.95
207.05
207.18
203.02
192.68
175.62
152.40
124.33
93.29
61.41
30.79
2.89
-22.19
-46.16
-72.48
-105.49
-149.03
-204.71
-270.66
-341.08
-407.17
-459.17
-488.91
-492.02
-469.06
-425.07
-367.83
-305.56
-245.21
-191.62
-147.81
-115.47
-95.54
-88.11
-92.24
-105.72
-125.32
-147.39
-168.52
-186.14
-198.68
-205.66
-207.28
-204.19
-197.13
-186.78
-173.80
-158.94
-143.10
-127.24
-112.06
-97.72
-83.71
-69.15
-53.15
-35.17
-15.27
6.02
27.92
49.58
70.21
89.05
105.45
118.98
129.50
137.18
142.34
145.14
145.41
142.49
135.55
123.92
107.55
87.30
64.91
42.63
22.72
6.90
-3.87
-9.48
-10.38
-7.35
-1.36
6.44
14.67
21.84
26.55
27.87
25.59
20.28
13.08
5.40
-1.49
-6.64
-9.57
-10.25
-8.99
-6.34
-2.96
0.49
3.34
4.97
4.79
2.41
-2.15
-8.29
-14.85
-20.40
-23.80
-24.68
-23.57
-21.72
-20.51
-20.89
-23.02
-26.31
-29.80
-32.55
-34.03
-34.12
-33.07
-31.27
-29.13
-27.06
-25.46
-24.69
-24.95
-26.19
-27.98
-29.63
-30.30
-29.31
-26.31
-21.39
-15.10
-8.30
-1.97
3.01
6.07
7.18
6.73
5.42
3.94
2.71
1.78
0.92
-0.08
-1.26
-2.34
-3.03
-3.28
-3.47
-4.34
-6.60
-10.42
-15.20
-19.60
-22.07
-21.45
-17.48
-10.87
-3.03
4.58
10.96
15.79
19.33
22.06
24.25
25.85
26.61
26.30
24.97
22.89
20.45
17.86
15.16
12.15
8.62
4.60
0.33
-3.74
-7.12
-9.42
-10.41
-10.08
-8.63
-6.47
-4.15
-2.27
-1.29
-1.40
-2.48
-4.12
-5.81
-7.07
-7.62
-7.37
-6.54
-5.54
-4.95
-5.36
-7.14
-10.33
-14.58
-19.27
-23.64
-27.08
-29.29
-30.31
-30.54
-30.53
-30.88
-32.10
-34.47
-38.05
-42.63
-47.79
-52.99
-57.68
-61.39
-63.83
-64.87
-64.59
-63.15
-60.67
-57.12
-52.32
-45.93
-37.69
-27.62
-16.11
-3.95
7.90
18.49
27.21
33.81
38.41
41.31
42.91
43.56
43.57
43.16
42.48
41.59
40.48
39.06
37.27
35.12
32.70
30.08
27.26
24.16
20.67
16.75
12.49
8.11
3.86
-0.11
-3.76
-7.17
-10.49
-13.83
-17.23
-20.64
-23.88
-26.67
-28.63
-29.34
-28.43
-25.78
-21.56
-16.28
-10.64
-5.31
-0.77
2.79
5.39
7.18
8.31
8.90
9.03
8.82
8.39
7.87
7.36
6.90
6.48
6.04
5.58
5.10
4.55
3.95
3.24
2.34
1.17
-0.34
-2.24
-4.46
-6.86
-9.21
-11.26
-12.89
-14.10
-15.09
-16.15
-17.59
-19.53
-21.82
-24.01
-25.46
-25.56
-23.90
-20.41
-15.26
-8.81
-1.41
6.61
15.03
23.60
32.04
40.03
47.25
53.48
58.63
62.83
66.26
69.19
71.84
74.35
76.85
79.42
82.18
85.26
88.76
92.64
96.74
100.81
104.62
108.06
111.18
114.11
116.95
119.60
121.61
122.24
120.54
115.69
107.29
95.45
80.79
64.14
46.38
28.08
9.51
-9.41
-29.08
-50.15
-73.47
-99.83
-129.76
-163.03
-198.48
-234.17
-267.93
-298.18
-324.51
-347.61
-368.58
-388.08
-405.71
-420.32
-430.83
-437.36
-441.60
-446.26
-453.94
-465.69
-480.65
-496.39
-510.03
-519.35
-523.17
-521.22
-513.64
-500.52
-481.75
-456.99
-425.70
-387.30
-341.27
-287.58
-226.96
-161.06
-92.15
-22.46
46.50
114.41
182.16
251.41
323.80
399.81
477.81
553.53
620.65
672.29
703.31
712.17
701.51
677.25
646.27
614.10
583.57
554.89
526.92
498.65
469.99
441.79
415.20
391.08
369.76
351.20
335.14
321.30
309.38
298.96
289.45
280.25
271.15
262.68
256.43
254.80
260.21
273.88
294.73
319.04
341.10
354.90
355.87
342.07
314.21
274.68
226.40
172.02
113.90
54.51
-3.34
-56.69
-103.16
-141.63
-172.38
-196.58
-215.42
-229.30
-237.72
-239.86
-235.32
-224.83
-210.29
-194.31
-179.38
-167.26
-158.54
-152.92
-149.57
-147.73
-146.95
-147.04
-147.88
-149.22
-150.65
-151.69
-151.99
-151.40
-150.00
-148.03
-145.77
-143.49
-141.48
-139.99
-139.17
-138.86
-138.50
-137.28
-134.41
-129.56
-123.04
-115.68
-108.38
-101.64
-95.29
-88.74
-81.41
-73.24
-64.77
-56.90
-50.40
-45.50
-41.91
-39.14
-36.79
-34.74
-32.88
-30.83
-27.82
-22.89
-15.44
-5.66
5.39
16.24
25.65
33.07
38.71
43.15
46.86
49.89
51.91
52.55
51.65
49.31
45.69
40.89
34.82
27.54
19.41
11.38
4.72
0.64
-0.33
1.41
4.58
7.49
8.70
7.47
3.91
-1.27
-7.14
-12.98
-18.35
-22.97
-26.61
-28.97
-29.84
-29.18
-27.26
-24.57
-21.56
-18.50
-15.38
-12.08
-8.52
-4.81
-1.23
1.87
4.19
5.61
6.17
6.10
5.73
5.42
5.50
6.16
7.35
8.87
10.41
11.72
12.68
13.33
13.69
13.73
13.19
11.75
9.12
5.26
0.48
-4.62
-9.23
-12.63
-14.41
-14.60
-13.65
-12.29
-11.22
-10.98
-11.79
-13.71
-16.63
-20.31
-24.28
-27.79
-29.92
-29.87
-27.31
-22.70
-17.14
-12.03
-8.45
-6.73
-6.37
-6.33
-5.55
-3.46
-0.23
3.31
6.12
7.35
6.72
4.64
1.89
-0.70
-2.61
-3.75
-4.27
-4.29
-3.72
-2.39
-0.24
2.39
4.79
6.09
5.71
3.61
0.32
-3.28
-6.34
-8.32
-9.12
-9.13
-8.94
-9.20
-10.43
-12.92
-16.72
-21.65
-27.47
-33.86
-40.41
-46.59
-51.69
-55.02
-56.07
-54.80
-51.70
-47.65
-43.63
-40.30
-37.75
-35.43
-32.42
-27.81
-21.15
-12.65
-3.10
6.43
15.05
22.30
28.15
32.77
36.28
38.61
39.56
39.12
37.53
35.34
33.14
31.25
29.52
27.46
24.52
20.37
15.11
9.30
3.67
-1.12
-4.79
-7.46
-9.56
-11.57
-13.73
-16.02
-18.17
-19.96
-21.40
-22.79
-24.59
-27.07
-30.10
-33.13
-35.38
-36.20
-35.28
-32.77
-29.08
-24.62
-19.77
-14.73
-9.72
-5.01
-0.95
2.17
4.18
5.19
5.53
5.62
5.85
6.47
7.52
8.90
10.39
11.72
12.68
13.20
13.36
13.36
13.44
13.67
13.88
13.70
12.78
10.96
8.43
5.71
3.37
1.73
0.68
-0.24
-1.59
-3.68
-6.33
-9.02
-11.15
-12.41
-13.02
-13.52
-14.41
-15.86
-17.44
-18.43
-18.14
-16.30
-13.18
-9.43
-5.76
-2.61
-0.08
2.03
4.01
6.02
7.97
9.55
10.38
10.25
9.25
7.83
6.61
6.04
6.22
6.82
7.33
7.36
6.91
6.34
6.15
6.65
7.77
9.07
9.95
9.94
8.83
6.74
3.91
0.63
-2.83
-6.30
-9.56
-12.42
-14.69
-16.26
-17.17
-17.64
-18.07
-18.84
-20.20
-22.06
-23.96
-25.18
-25.00
-23.04
-19.41
-14.70
-9.70
-4.98
-0.69
3.54
8.19
13.51
19.14
24.19
27.65
28.95
28.25
26.36
24.27
22.66
21.67
20.98
20.27
19.54
19.08
19.25
20.05
21.01
21.29
20.23
17.67
14.07
10.27
7.00
4.60
2.86
1.29
-0.61
-3.07
-5.93
-8.82
-11.38
-13.48
-15.31
-17.21
-19.50
-22.18
-24.91
-27.09
-28.24
-28.17
-27.13
-25.56
-23.82
-21.96
-19.67
-16.54
-12.35
-7.28
-1.88
3.15
7.19
9.96
11.53
12.28
12.67
13.08
13.64
14.22
14.54
14.31
13.46
12.23
11.12
10.72
11.49
13.47
16.24
18.97
20.71
20.64
18.47
14.54
9.69
4.96
1.19
-1.36
-2.99
-4.29
-5.89
-8.14
-11.11
-14.70
-18.79
-23.24
-27.70
-31.62
-34.24
-34.90
-33.39
-30.07
-25.76
-21.33
-17.33
-13.82
-10.53
-7.11
-3.47
0.19
3.50
6.14
7.98
9.12
9.80
10.21
10.45
10.46
10.18
9.59
8.83
8.15
7.82
7.97
8.45
8.83
8.48
6.92
4.10
0.55
-2.81
-5.05
-5.78
-5.40
-4.90
-5.29
-7.04
-9.78
-12.48
-14.14
-14.25
-13.07
-11.30
-9.58
-8.13
-6.68
-4.76
-2.13
1.15
4.71
8.16
11.16
13.48
14.96
15.44
14.90
13.57
11.87
10.24
8.95
8.03
7.34
6.77
6.41
6.44
7.00
7.91
8.68
8.74
7.77
5.93
3.82
2.22
1.61
1.95
2.76
3.30
3.03
1.80
-0.20
-2.72
-5.60
-8.90
-12.60
-16.42
-19.71
-21.68
-21.75
-19.86
-16.53
-12.60
-8.86
-5.66
-2.98
-0.55
1.87
4.29
6.49
8.23
9.36
9.87
9.84
9.40
8.73
8.01
7.48
7.33
7.59
8.11
8.58
8.69
8.33
7.62
6.80
6.05
5.32
4.40
3.02
1.15
-0.99
-3.04
-4.74
-6.08
-7.44
-9.21
-11.56
-14.33
-17.02
-19.16
-20.43
-20.82
-20.63
-20.37
-20.35
-20.59
-20.77
-20.51
-19.59
-18.09
-16.31
-14.65
-13.49
-12.82
-12.34
-11.71
-10.89
-10.33
-10.63
-12.28
-15.38
-20.02
-25.64
-31.32
-36.24
-40.12
-43.63
-47.80
-53.48
-61.06
-71.20
-83.15
-95.33
-106.07
-114.70
-122.43
-131.14
-142.24
-156.27
-174.00
-193.92
-213.25
-229.06
-239.77
-246.50
-251.49
-256.81
-263.88
-274.74
-287.65
-297.78
-298.29
-282.75
-248.18
-194.35
-123.17
-28.75
82.75
196.68
295.47
368.58
422.29
466.44
507.29
547.55
587.76
616.56
626.89
615.57
583.87
536.45
478.73
416.45
354.67
296.36
240.88
188.65
140.93
99.67
65.80
37.25
10.30
-18.40
-50.41
-85.49
-119.30
-145.66
-159.13
-157.48
-143.14
-121.57
-99.00
-80.45
-68.65
-62.18
-56.66
-46.79
-28.73
-1.96
31.24
67.26
102.58
134.26
157.92
168.34
160.82
133.15
86.72
27.10
-36.75
-94.73
-143.45
-180.96
-206.96
-223.07
-232.20
-237.72
-242.81
-250.26
-262.64
-275.29
-285.68
-291.62
-291.50
-284.47
-270.96
-252.99
-234.19
-219.06
-211.49
-213.56
-223.53
-236.32
-245.39
-245.47
-234.94
-216.39
-195.33
-177.30
-165.65
-159.46
-154.19
-143.70
-122.75
-88.95
-43.40
9.71
64.57
114.93
156.13
185.91
204.49
213.63
215.72
212.96
207.12
200.02
193.65
190.36
192.01
198.89
209.14
219.19
225.20
224.74
217.73
206.01
192.00
177.11
161.11
142.85
121.76
99.09
77.91
61.97
53.87
53.89
60.00
68.88
77.47
83.96
87.85
89.40
88.91
86.45
81.96
75.71
68.36
60.74
53.24
45.50
36.51
25.13
10.78
-6.22
-24.79
-43.70
-62.16
-80.07
-97.92
-116.26
-135.28
-154.62
-173.56
-191.42
-207.92
-223.39
-238.51
-253.92
-269.80
-285.69
-300.52
-312.86
-321.31
-324.69
-322.27
-313.86
-299.84
-281.00
-258.15
-231.47
-200.13
-162.22
-115.54
-58.79
7.23
79.36
152.82
222.85
286.26
342.08
391.10
434.65
473.37
506.79
533.69
552.65
562.57
562.77
553.10
534.14
507.38
475.12
439.92
403.64
366.75
328.46
287.43
242.85
195.17
145.85
96.77
49.39
4.57
-37.12
-74.86
-107.41
-133.46
-152.15
-163.61
-168.85
-169.34
-166.44
-160.95
-153.05
-142.55
-129.33
-113.77
-96.88
-80.10
-64.90
-52.25
-42.29
-34.39
-27.51
-20.66
-13.31
-5.51
2.24
9.29
15.06
19.26
21.87
23.13
23.48
23.42
23.40
23.67
24.12
24.28
23.59
21.54
18.01
13.26
7.86
2.35
-3.06
-8.57
-14.67
-21.75
-29.74
-37.96
-45.25
-50.46
-53.06
-53.32
-52.30
-51.33
-51.47
-53.04
-55.63
-58.36
-60.39
-61.26
-61.00
-59.98
-58.66
-57.30
-55.81
-53.88
-51.05
-46.97
-41.45
-34.51
-26.38
-17.43
-8.12
1.14
10.04
18.45
26.43
34.18
42.02
50.24
59.04
68.59
78.95
90.08
101.86
114.07
126.42
138.67
150.59
162.10
173.16
183.84
194.28
204.63
214.82
224.34
232.17
236.88
237.06
231.87
221.20
205.58
185.60
161.46
132.78
98.94
59.55
14.96
-33.66
-84.60
-136.01
-186.20
-233.74
-277.44
-316.26
-349.54
-377.17
-399.82
-418.92
-436.23
-453.24
-470.46
-486.77
-499.24
-503.70
-496.04
-473.86
-437.83
-391.89
-342.22
-295.29
-255.77
-225.36
-202.76
-184.78
-167.85
-149.21
-127.27
-101.55
-72.31
-40.53
-7.96
22.86
49.25
69.29
82.83
91.78
99.54
109.47
123.39
140.74
158.89
174.45
184.79
189.03
188.04
183.61
177.45
170.60
163.44
156.17
149.17
143.02
138.08
134.01
129.64
123.51
114.62
103.10
90.20
77.68
66.85
57.95
50.12
42.12
33.15
23.36
13.64
5.03
-1.96
-7.63
-12.78
-18.12
-23.78
-29.20
-33.43
-35.83
-36.45
-36.15
-36.08
-37.04
-38.90
-40.54
-40.27
-36.68
-29.19
-18.32
-5.36
8.12
20.79
31.72
40.44
46.83
51.06
53.52
54.79
55.41
55.71
55.72
55.33
54.43
53.07
51.51
50.06
48.94
48.29
48.08
48.17
48.27
47.89
46.38
43.13
37.88
30.89
22.99
15.24
8.67
3.91
1.27
0.84
2.66
6.78
12.93
20.41
27.96
34.01
37.07
36.21
31.39
23.47
14.00
4.85
-2.22
-5.93
-5.71
-1.70
5.41
14.73
25.50
37.15
49.30
61.50
73.09
83.11
90.55
94.65
95.21
92.62
87.73
81.50
74.79
68.16
61.94
56.26
50.95
45.45
38.79
29.81
17.55
1.70
-17.22
-38.04
-59.43
-80.32
-100.00
-118.05
-133.89
-146.62
-155.09
-158.18
-155.17
-146.06
-131.56
-112.97
-91.84
-69.73
-48.00
-27.74
-9.66
5.94
19.15
30.50
40.77
50.79
61.17
72.06
83.11
93.60
102.71
109.71
114.12
115.73
114.52
110.64
104.36
96.05
86.20
75.39
64.26
53.57
44.13
36.65
31.66
29.24
29.04
30.27
31.83
32.42
30.81
26.09
17.88
6.40
-7.65
-23.50
-40.72
-59.44
-80.23
-103.54
-129.16
-155.77
-180.91
-201.47
-214.33
-217.02
-208.28
-188.28
-158.73
-122.52
-83.37
-44.98
-10.40
18.50
41.14
57.98
70.05
78.51
84.44
88.80
92.40
95.81
99.20
102.26
104.24
104.41
102.39
98.41
93.18
87.49
81.79
76.01
69.62
62.00
52.78
42.05
30.26
18.08
6.07
-5.59
-17.35
-30.39
-46.59
-68.11
-96.62
-132.29
-172.98
-214.18
-249.73
-273.36
-280.51
-269.56
-242.27
-203.06
-157.72
-111.92
-70.12
-35.05
-7.80
11.82
24.79
32.49
36.37
37.77
37.76
37.00
35.61
33.29
29.51
23.86
16.43
7.89
-0.66
-8.08
-13.66
-17.32
-19.52
-20.92
-21.99
-22.82
-23.23
-23.01
-22.20
-21.14
-20.37
-20.43
-21.63
-23.98
-27.11
-30.43
-33.25
-35.02
-35.50
-34.89
-33.69
-32.54
-31.83
-31.41
-30.45
-27.55
-21.24
-10.53
4.43
22.14
39.86
54.38
63.02
64.59
59.76
50.80
40.61
31.65
25.10
20.86
17.97
15.49
13.02
10.80
9.28
8.64
8.61
8.66
8.46
8.11
8.08
8.86
10.57
12.77
14.66
15.51
14.94
13.16
10.76
8.42
6.66
5.76
5.84
7.00
9.41
13.20
18.31
24.32
30.49
36.04
40.43
43.66
46.17
48.48
50.77
52.54
53.01
51.53
48.13
43.63
39.29
36.17
34.58
33.99
33.25
31.23
27.34
21.80
15.51
9.57
4.72
1.07
-1.79
-4.44
-7.21
-9.99
-12.41
-14.07
-14.89
-15.07
-14.94
-14.67
-14.24
-13.56
-12.66
-11.77
-11.17
-10.97
-11.07
-11.18
-11.06
-10.65
-10.02
-9.14
-7.80
-5.69
-2.60
1.32
5.56
9.48
12.52
14.51
15.61
16.14
16.41
16.57
16.64
16.60
16.51
16.49
16.59
16.70
16.48
15.44
13.17
9.45
4.36
-1.76
-8.44
-15.26
-21.83
-27.84
-32.95
-36.76
-38.89
-39.05
-37.25
-33.82
-29.38
-24.67
-20.32
-16.69
-13.82
-11.54
-9.61
-7.84
-6.19
-4.69
-3.40
-2.33
-1.49
-0.98
-0.99
-1.74
-3.33
-5.57
-7.89
-9.49
-9.61
-7.87
-4.46
-0.19
3.82
6.47
7.10
5.69
2.82
-0.61
-3.67
-5.70
-6.38
-5.73
-3.98
-1.54
1.13
3.52
5.20
5.91
5.68
4.78
3.61
2.49
1.55
0.80
0.20
-0.09
0.22
1.42
3.55
6.21
8.73
10.40
10.86
10.16
8.71
6.89
4.87
2.49
-0.56
-4.44
-8.99
-13.77
-18.29
-22.20
-25.39
-27.87
-29.64
-30.58
-30.44
-29.08
-26.56
-23.26
-19.76
-16.61
-14.08
-12.10
-10.23
-8.02
-5.28
-2.28
0.33
1.76
1.47
-0.54
-3.76
-7.31
-10.31
-12.18
-12.72
-12.04
-10.40
-8.13
-5.50
-2.87
-0.56
1.09
1.92
1.99
1.59
1.12
0.91
1.08
1.42
1.55
1.05
-0.29
-2.31
-4.56
-6.37
-7.22
-6.88
-5.54
-3.66
-1.66
0.24
2.16
4.29
6.73
9.30
11.59
13.21
14.03
14.33
14.65
15.47
16.94
18.70
20.03
20.22
18.91
16.32
13.18
10.29
8.19
6.87
5.81
4.32
1.92
-1.38
-5.10
-8.56
-11.16
-12.63
-13.04
-12.74
-12.16
-11.77
-11.92
-12.80
-14.31
-16.14
-17.81
-18.89
-19.18
-18.73
-17.75
-16.43
-14.82
-12.81
-10.26
-7.15
-3.70
-0.29
2.75
5.23
7.17
8.71
9.93
10.80
11.17
11.01
10.50
10.12
10.42
11.81
14.22
17.12
19.71
21.30
21.64
20.95
19.72
18.32
16.78
14.74
11.73
7.52
2.31
-3.29
-8.56
-12.92
-16.18
-18.49
-20.21
-21.60
-22.66
-23.05
-22.23
-19.70
-15.32
-9.52
-3.13
2.89
7.88
11.76
15.08
18.59
22.80
27.69
32.63
36.78
39.41
40.25
39.49
37.63
35.20
32.62
30.03
27.38
24.46
21.07
17.05
12.46
7.49
2.44
-2.40
-6.89
-10.96
-14.64
-17.89
-20.54
-22.34
-23.07
-22.69
-21.43
-19.75
-18.14
-16.98
-16.32
-15.97
-15.66
-15.27
-14.91
-14.94
-15.76
-17.59
-20.33
-23.45
-26.18
-27.75
-27.62
-25.64
-22.07
-17.49
-12.56
-7.85
-3.68
-0.10
3.05
5.98
8.84
11.63
14.26
16.57
18.41
19.68
20.32
20.37
19.97
19.32
18.64
18.14
17.89
17.88
18.02
18.19
18.26
18.17
17.85
17.23
16.28
14.96
13.37
11.62
9.85
8.12
6.37
4.47
2.24
-0.41
-3.44
-6.66
-9.79
-12.59
-14.96
-16.92
-18.58
-19.95
-20.91
-21.17
-20.44
-18.54
-15.61
-12.02
-8.27
-4.78
-1.71
1.01
3.60
6.17
8.63
10.68
12.03
12.55
12.45
12.18
12.27
13.01
14.36
15.98
17.41
18.26
18.42
17.99
17.27
16.53
15.96
15.59
15.36
15.14
14.79
14.26
13.56
12.79
12.06
11.39
10.78
10.16
9.52
8.97
8.63
8.57
8.57
8.17
6.75
3.88
-0.32
-5.07
-9.05
-10.96
-10.14
-6.99
-2.85
0.55
1.95
1.10
-1.12
-3.27
-4.03
-2.84
-0.14
3.00
5.33
6.07
5.16
3.28
1.55
0.99
2.18
4.82
7.90
10.03
10.18
8.25
5.48
4.34
8.01
19.47
40.43
70.72
108.11
148.92
188.79
223.79
251.01
268.90
277.21
276.67
268.56
254.24
234.83
211.11
183.65
153.26
121.28
89.69
60.70
36.14
16.82
2.30
-8.74
-17.88
-26.20
-33.95
-40.57
-45.25
-47.72
-48.80
-50.56
-55.67
-66.33
-82.99
-103.59
-124.05
-139.66
-147.02
-145.31
-136.41
-123.88
-111.39
-101.26
-94.13
-89.39
-86.20
-84.25
-83.87
-85.64
-89.77
-95.97
-103.09
-109.58
-114.13
-116.21
-116.32
-115.72
-115.65
-116.87
-119.98
-124.72
-130.31
-135.83
-140.56
-144.41
-147.98
-152.13
-157.94
-167.65
-182.96
-204.77
-232.60
-264.32
-296.60
-325.57
-347.17
-358.23
-358.75
-349.99
-334.40
-314.41
-291.55
-266.41
-238.87
-207.79
-165.15
-108.66
-41.52
27.54
88.86
137.94
177.34
210.16
238.93
265.93
287.37
301.91
309.88
312.95
313.32
312.64
311.59
310.62
309.87
307.99
303.99
296.90
286.35
272.70
256.68
238.97
220.70
203.39
188.08
176.25
168.61
164.63
162.25
158.02
148.13
130.11
103.77
70.95
35.50
1.67
-26.92
-48.12
-61.56
-68.42
-70.66
-70.32
-69.18
-68.30
-68.22
-69.06
-70.59
-72.33
-73.60
-73.64
-72.04
-69.02
-65.45
-62.36
-60.15
-58.03
-54.09
-46.16
-33.12
-15.92
2.43
17.82
26.75
27.62
21.23
10.04
-3.03
-15.67
-26.50
-34.76
-39.86
-41.23
-38.69
-32.96
-25.79
-19.49
-16.03
-16.15
-19.07
-22.85
-25.31
-24.94
-21.32
-15.15
-7.86
-1.01
4.14
6.91
7.26
5.67
2.86
-0.45
-3.84
-7.18
-10.58
-14.14
-17.80
-21.34
-24.46
-26.97
-28.86
-30.27
-31.40
-32.30
-32.86
-32.77
-31.76
-29.68
-26.65
-22.98
-19.06
-15.22
-11.64
-8.29
-4.94
-1.20
3.35
8.93
15.36
21.98
27.79
31.78
33.36
32.57
30.04
26.71
23.42
20.67
18.58
17.04
15.87
14.89
13.86
12.46
10.33
7.21
2.99
-2.20
-8.09
-14.31
-20.49
-26.16
-30.77
-33.73
-34.56
-33.13
-29.73
-25.06
-20.04
-15.47
-11.92
-9.55
-8.24
-7.74
-7.82
-8.33
-9.19
-10.34
-11.65
-12.91
-13.84
-14.21
-13.97
-13.31
-12.60
-12.26
-12.55
-13.45
-14.72
-16.05
-17.35
-18.72
-20.46
-22.77
-25.56
-28.51
-31.12
-32.98
-33.93
-34.06
-33.54
-32.54
-31.07
-29.01
-26.27
-22.83
-18.80
-14.35
-9.71
-5.10
-0.77
3.06
6.18
8.46
9.87
10.48
10.49
10.13
9.63
9.10
8.55
7.87
6.87
5.42
3.52
1.27
-1.16
-3.64
-6.13
-8.70
-11.42
-14.29
-17.27
-20.27
-23.28
-26.31
-29.35
-32.26
-34.72
-36.31
-36.63
-35.48
-32.93
-29.17
-24.47
-19.00
-12.88
-6.29
0.47
6.92
12.53
16.84
19.63
21.00
21.26
20.85
20.19
19.57
19.13
18.89
18.81
18.83
18.81
18.56
17.83
16.39
14.13
11.15
7.77
4.39
1.34
-1.26
-3.56
-5.85
-8.46
-11.53
-14.98
-18.50
-21.64
-23.99
-25.17
-24.93
-23.21
-20.02
-15.46
-9.64
-2.71
5.10
13.46
21.84
29.63
36.23
41.21
44.42
45.99
46.28
45.77
44.89
43.97
43.22
42.73
42.48
42.35
42.11
41.46
40.06
37.59
33.86
28.87
22.89
16.40
10.00
4.28
-0.36
-3.73
-5.90
-7.08
-7.66
-8.05
-8.70
-9.97
-12.03
-14.82
-18.03
-21.28
-24.17
-26.48
-28.11
-29.04
-29.17
-28.23
-25.77
-21.36
-14.78
-6.20
3.75
14.06
23.63
31.54
37.26
40.75
42.39
42.79
42.64
42.48
42.60
42.95
43.22
42.95
41.74
39.53
36.59
33.47
30.74
28.80
27.70
27.25
27.14
27.11
26.98
26.55
25.49
23.38
19.87
14.84
8.57
1.67
-5.11
-11.20
-16.30
-20.39
-23.56
-25.86
-27.24
-27.60
-26.91
-25.22
-22.73
-19.60
-15.94
-11.78
-7.09
-1.97
3.36
8.51
13.04
16.63
19.18
20.89
22.09
23.15
24.26
25.37
26.29
26.77
26.71
26.14
25.26
24.28
23.37
22.59
21.91
21.23
20.37
19.15
17.45
15.30
12.92
10.74
9.18
8.52
8.63
9.06
9.13
8.23
6.11
2.91
-0.85
-4.64
-8.07
-11.03
-13.57
-15.71
-17.39
-18.38
-18.52
-17.81
-16.46
-14.78
-13.06
-11.48
-10.05
-8.83
-7.88
-7.28
-6.97
-6.61
-5.66
-3.55
0.02
4.86
10.32
15.54
19.82
22.76
24.18
23.92
21.69
17.14
10.10
0.98
-9.19
-18.86
-26.40
-30.55
-30.66
-26.69
-19.14
-8.84
3.07
15.23
26.21
34.77
40.17
42.38
42.14
40.69
39.39
39.21
40.46
42.65
44.78
45.75
44.87
42.15
38.22
34.01
30.17
26.82
23.65
20.27
16.53
12.70
9.14
6.11
3.58
1.45
-0.17
-0.86
-0.06
2.42
6.03
9.57
11.74
11.88
10.55
9.34
10.23
14.62
22.72
33.62
45.78
57.83
69.07
79.43
89.08
97.89
105.30
110.48
112.69
111.73
108.00
102.29
95.55
88.59
81.89
75.64
69.62
63.31
55.98
46.96
35.83
22.68
8.03
-7.48
-23.29
-39.14
-54.97
-70.60
-85.58
-99.18
-110.69
-119.74
-126.47
-131.33
-134.70
-136.58
-136.66
-134.71
-131.01
-126.52
-122.53
-120.03
-119.31
-119.79
-120.37
-119.93
-117.70
-113.39
-107.19
-99.75
-92.02
-85.20
-80.34
-77.80
-76.83
-75.47
-71.20
-61.94
-47.09
-28.00
-7.57
10.80
24.48
32.42
35.30
35.08
34.31
35.47
40.26
48.99
60.06
70.15
75.29
72.57
61.88
46.22
30.55
19.47
15.15
16.84
22.14
29.18
37.84
49.31
64.17
80.49
93.52
97.36
87.84
64.77
32.20
-3.27
-35.15
-59.34
-74.81
-82.92
-85.79
-85.15
-81.86
-76.20
-68.53
-59.58
-50.34
-41.53
-33.18
-24.56
-14.60
-2.59
11.34
26.09
40.06
51.76
60.42
66.12
69.47
71.04
71.02
69.17
64.96
57.67
46.48
30.44
8.89
-17.67
-46.85
-74.20
-94.14
-101.93
-95.44
-76.12
-48.28
-17.22
12.72
39.22
61.85
81.05
97.21
110.46
121.03
129.77
138.18
147.83
159.46
172.45
185.11
195.45
201.98
204.05
201.77
195.78
187.22
177.77
169.59
164.72
164.04
166.27
167.94
164.47
152.15
129.77
99.13
64.02
28.44
-4.97
-35.35
-62.95
-88.04
-110.38
-129.45
-145.24
-158.82
-172.24
-187.50
-205.51
-225.55
-245.58
-263.09
-276.04
-283.18
-283.83
-277.44
-263.34
-241.15
-211.38
-175.92
-137.91
-101.02
-68.43
-42.08
-22.37
-8.56
0.98
8.08
14.31
20.51
26.62
31.81
34.92
35.03
31.88
26.39
20.70
17.52
19.10
26.26
37.78
50.51
60.19
62.36
54.50
37.23
14.25
-8.94
-27.14
-37.26
-39.17
-35.33
-30.64
-29.06
-32.02
-38.19
-44.68
-48.71
-48.60
-44.01
-35.78
-28.30
-25.50
-29.68
-41.15
-59.20
-82.97
-111.53
-143.21
-175.36
-208.85
-243.31
-276.71
-306.00
-329.16
-346.46
-360.00
-372.35
-385.73
-407.26
-441.34
-487.05
-537.56
-582.95
-614.20
-626.07
-618.26
-560.15
-442.19
-277.81
-98.53
64.45
194.24
288.59
353.01
394.71
420.06
428.44
420.19
398.57
370.55
343.49
322.31
308.73
302.09
300.27
297.70
291.32
281.33
271.60
265.36
261.97
256.43
241.72
211.94
161.86
92.48
10.93
-69.11
-132.25
-165.98
-163.57
-124.75
-51.71
45.48
154.06
255.78
333.39
374.23
374.14
338.55
280.30
215.20
155.53
110.13
74.31
40.92
4.75
-34.27
-70.32
-93.80
-95.67
-72.21
-25.97
32.03
87.52
126.80
140.87
127.71
91.76
41.46
-13.72
-65.03
-105.96
-130.95
-136.36
-121.35
-88.59
-44.02
4.79
50.86
90.01
121.03
145.36
164.23
176.68
179.45
168.74
142.97
104.71
60.06
15.76
-23.70
-57.82
-88.71
-117.75
-142.77
-158.33
-159.23
-145.25
-123.47
-105.77
-102.65
-116.91
-141.25
-161.90
-166.38
-150.91
-122.93
-97.34
-88.57
-103.27
-137.32
-178.78
-214.12
-234.40
-238.11
-229.80
-216.17
-202.30
-189.98
-178.24
-165.49
-151.32
-137.09
-124.96
-116.40
-110.97
-106.23
-98.74
-85.54
-65.47
-39.45
-10.04
19.75
47.62
72.82
96.14
119.41
144.43
172.15
202.23
233.25
263.20
290.16
312.68
329.82
341.05
346.10
344.98
338.20
326.89
312.46
296.10
278.27
258.28
234.66
205.74
170.50
129.51
85.23
41.39
2.03
-29.60
-52.07
-65.75
-72.64
-75.79
-78.02
-81.11
-85.79
-91.93
-99.00
-106.32
-112.84
-117.67
-120.51
-121.23
-120.06
-118.31
-117.91
-120.34
-125.53
-130.87
-132.94
-129.68
-122.61
-114.29
-107.12
-100.68
-91.01
-73.41
-45.82
-8.69
30.05
61.65
81.56
91.47
98.50
112.31
136.47
173.76
223.27
279.77
335.33
380.81
407.22
407.85
380.45
328.30
261.06
190.97
128.45
79.95
46.53
24.34
6.90
-11.84
-37.10
-67.81
-97.76
-119.06
-125.56
-116.14
-95.06
-69.89
-48.24
-35.89
-35.07
-45.40
-66.49
-97.13
-135.22
-178.08
-223.03
-267.45
-309.50
-348.40
-380.37
-404.53
-420.97
-430.07
-431.70
-424.85
-406.77
-373.58
-321.86
-250.00
-160.55
-59.38
45.26
144.57
226.55
281.21
304.82
301.16
279.77
250.49
221.03
195.82
176.52
162.85
153.86
150.13
149.03
147.89
143.68
134.40
119.53
100.07
78.35
58.31
44.53
40.46
48.77
68.64
96.74
127.81
156.08
176.32
185.00
180.51
162.77
134.86
101.25
68.44
43.47
31.45
33.03
43.15
52.91
50.57
27.89
-16.93
-76.32
-137.10
-187.23
-220.66
-238.26
-244.76
-251.48
-260.33
-269.94
-276.80
-276.86
-267.31
-247.39
-218.97
-185.33
-151.76
-120.18
-97.26
-89.37
-98.50
-120.25
-144.16
-157.06
-146.14
-104.03
-30.89
63.27
162.97
252.10
317.11
348.52
336.89
279.83
185.40
72.00
-39.28
-137.22
-216.62
-275.32
-308.30
-312.68
-287.00
-232.23
-152.49
-56.02
48.03
145.72
221.55
263.52
268.06
243.10
203.82
165.10
135.04
113.72
96.12
77.05
54.80
31.88
14.27
8.23
17.02
39.12
68.91
98.11
119.08
125.44
114.04
86.65
49.99
13.67
-13.17
-24.75
-20.92
-6.37
11.69
26.32
32.78
31.38
26.39
22.38
21.06
19.06
9.38
-15.43
-59.25
-119.16
-184.91
-241.88
-278.37
-286.51
-265.89
-222.97
-168.21
-112.40
-64.07
-28.91
-10.48
-10.69
-28.63
-60.13
-97.79
-132.86
-158.33
-171.40
-173.93
-170.73
-166.59
-163.42
-160.09
-153.62
-140.52
-118.95
-89.20
-53.16
-13.42
27.36
66.75
102.17
130.96
150.78
160.22
159.88
152.94
144.85
141.94
149.72
170.91
204.62
246.90
292.06
334.64
370.79
398.73
418.33
430.20
434.68
431.13
418.09
394.15
359.69
318.29
276.35
240.87
215.85
199.42
183.80
158.57
115.87
54.56
-19.00
-93.84
-159.38
-209.66
-244.61
-268.53
-287.03
-304.70
-323.93
-344.91
-365.85
-383.09
-391.88
-387.80
-368.82
-336.53
-295.99
-253.78
-215.48
-183.60
-157.00
-131.73
-102.69
-65.24
-16.76
42.40
108.35
173.76
229.29
266.00
278.46
267.12
238.63
204.02
175.19
161.06
164.67
182.98
208.33
230.83
241.09
231.72
199.22
145.07
76.15
3.51
-59.17
-99.19
-109.08
-88.97
-47.63
0.97
42.70
67.34
69.48
49.15
10.00
-42.70
-102.79
-165.32
-225.94
-280.68
-326.04
-360.07
-380.66
-385.96
-375.10
-348.11
-308.51
-261.55
-212.36
-156.72
-93.86
-26.65
38.07
86.86
118.07
136.03
147.70
160.97
179.19
199.49
215.88
222.54
216.67
200.34
176.74
148.25
114.80
73.67
20.64
-45.48
-120.20
-193.58
-252.62
-287.17
-292.83
-272.21
-233.84
-189.27
-148.92
-120.08
-106.87
-109.78
-126.10
-148.77
-167.96
-174.39
-163.93
-140.13
-113.11
-94.85
-92.18
-101.88
-110.53
-101.29
-62.44
6.50
94.96
186.46
265.22
318.17
336.25
320.90
285.35
249.01
226.28
220.19
224.24
228.60
226.11
216.00
206.37
201.50
200.12
195.59
179.80
148.50
104.84
58.91
24.40
12.52
25.93
59.14
99.15
131.16
144.46
136.21
111.09
78.66
49.15
28.93
19.53
17.93
19.26
19.59
17.56
14.08
11.17
10.19
10.15
8.11
0.05
-17.27
-44.84
-80.97
-121.86
-162.36
-196.92
-220.58
-229.74
-223.01
-201.36
-167.63
-125.32
-77.55
-26.68
25.11
74.57
116.76
145.72
156.48
147.44
121.52
85.42
47.20
13.48
-12.34
-30.38
-42.91
-52.70
-61.87
-71.97
-84.57
-101.70
-125.44
-156.51
-193.39
-231.39
-263.74
-284.05
-288.84
-278.90
-258.61
-233.70
-208.90
-187.38
-169.59
-153.99
-138.57
-122.11
-104.90
-88.46
-74.73
-65.19
-61.69
-64.25
-70.85
-78.22
-83.29
-84.43
-81.70
-76.54
-71.09
-69.59
-75.24
-88.89
-108.56
-130.10
-148.67
-160.19
-162.71
-146.26
-109.66
-60.48
-11.46
26.89
51.03
63.25
67.89
68.49
67.00
61.71
52.97
43.40
37.11
38.01
48.55
69.39
100.12
139.71
185.36
231.39
271.79
301.21
316.26
316.67
305.57
288.48
270.96
255.54
242.01
228.56
213.39
195.87
176.69
157.08
137.93
119.30
100.19
79.80
58.52
37.89
19.97
6.55
-1.64
-5.22
-5.85
-5.84
-7.09
-10.23
-14.77
-19.55
-23.52
-26.32
-28.44
-30.73
-33.86
-37.87
-42.01
-45.19
-46.52
-45.71
-43.18
-39.74
-36.34
-33.65
-32.06
-31.61
-32.19
-33.58
-35.46
-37.49
-39.28
-40.53
-41.04
-40.78
-39.82
-38.36
-36.59
-34.68
-32.65
-30.41
-27.79
-24.70
-21.29
-17.94
-15.17
-13.37
-12.60
-12.55
-12.77
-12.90
-12.84
-12.74
-12.76
-12.85
-12.70
-11.93
-10.34
-8.11
-5.74
-3.70
-2.23
-1.22
-0.41
0.29
0.57
-0.12
-2.22
-5.70
-9.91
-13.91
-16.94
-18.84
-20.08
-21.46
-23.63
-26.80
-30.75
-35.00
-39.12
-42.73
-45.44
-46.75
-46.14
-43.21
-37.90
-30.50
-21.55
-11.59
-1.11
9.44
19.46
28.28
35.25
39.99
42.56
43.37
43.02
41.98
40.44
38.40
35.84
32.87
29.81
27.03
24.84
23.30
22.27
21.47
20.61
19.49
18.03
16.29
14.35
12.33
10.31
8.35
6.55
5.09
4.31
4.61
6.30
9.43
13.67
18.31
22.43
25.25
26.33
25.69
23.72
21.04
18.24
15.77
13.94
12.94
12.89
13.84
15.68
18.04
20.27
21.59
21.30
19.08
15.21
10.47
5.93
2.51
0.63
0.19
0.65
1.41
2.10
2.69
3.39
4.43
5.85
7.41
8.66
9.07
8.27
6.20
3.14
-0.37
-3.72
-6.45
-8.40
-9.73
-10.78
-11.90
-13.33
-15.18
-17.52
-20.46
-24.09
-28.32
-32.75
-36.65
-39.21
-39.91
-38.75
-36.30
-33.36
-30.62
-28.36
-26.45
-24.57
-22.53
-20.39
-18.41
-16.90
-15.98
-15.53
-15.32
-15.05
-14.55
-13.81
-12.91
-11.94
-10.95
-9.91
-8.73
-7.34
-5.76
-4.11
-2.58
-1.35
-0.47
0.11
0.55
0.99
1.55
2.26
3.08
3.99
4.95
5.91
6.78
7.41
7.63
7.27
6.29
4.83
3.18
1.74
0.80
0.40
0.27
-0.08
-1.16
-3.20
-5.94
-8.75
-10.75
-11.13
-9.44
-5.74
-0.50
5.42
11.04
15.52
18.38
19.68
20.05
20.50
22.11
25.73
31.70
39.82
49.49
59.84
69.92
78.75
85.31
88.63
87.98
83.14
74.53
63.26
50.79
38.53
27.42
17.71
9.00
0.54
-8.34
-17.93
-28.01
-37.95
-46.95
-54.27
-59.40
-62.17
-62.76
-61.68
-59.68
-57.56
-55.97
-55.26
-55.41
-56.11
-56.92
-57.41
-57.15
-55.77
-52.97
-48.59
-42.78
-36.03
-29.00
-22.29
-16.16
-10.46
-4.94
0.52
5.68
10.19
13.82
16.87
20.02
24.01
29.19
35.15
40.94
45.51
48.21
49.11
48.79
47.88
46.67
44.91
41.99
37.37
30.93
23.11
14.76
6.86
0.12
-5.18
-9.16
-12.26
-14.91
-17.41
-19.86
-22.25
-24.57
-26.91
-29.42
-32.17
-35.08
-37.85
-40.04
-41.24
-41.21
-39.94
-37.66
-34.74
-31.56
-28.40
-25.37
-22.42
-19.36
-15.98
-12.21
-8.16
-4.08
-0.19
3.47
7.18
11.35
16.30
22.02
28.13
34.02
39.05
42.82
45.22
46.33
46.32
45.41
43.86
42.05
40.47
39.58
39.58
40.19
40.75
40.41
38.52
34.92
29.95
24.33
18.79
13.83
9.60
5.94
2.57
-0.77
-4.22
-7.80
-11.41
-14.89
-18.02
-20.56
-22.31
-23.15
-23.12
-22.32
-20.92
-19.11
-17.06
-14.96
-12.96
-11.16
-9.57
-8.11
-6.61
-4.92
-2.92
-0.55
2.15
5.08
8.01
10.73
12.96
14.56
15.49
15.86
15.79
15.42
14.90
14.42
14.26
14.72
15.98
17.92
20.09
21.80
22.47
21.93
20.53
18.95
17.88
17.64
17.96
18.18
17.55
15.58
12.21
7.78
2.76
-2.42
-7.45
-12.08
-16.04
-19.04
-20.85
-21.44
-21.08
-20.19
-19.23
-18.41
-17.72
-16.93
-15.82
-14.32
-12.57
-10.81
-9.31
-8.18
-7.42
-6.90
-6.50
-6.17
-5.85
-5.47
-4.92
-4.09
-3.00
-1.81
-0.87
-0.51
-0.92
-1.99
-3.38
-4.68
-5.62
-6.13
-6.25
-6.00
-5.23
-3.78
-1.66
0.67
2.46
2.95
1.82
-0.56
-3.36
-5.59
-6.74
-6.90
-6.67
-6.71
-7.31
-8.23
-8.89
-8.71
-7.45
-5.30
-2.78
-0.42
1.43
2.71
3.55
4.14
4.62
5.05
5.38
5.60
5.69
5.72
5.70
5.69
5.72
5.86
6.16
6.60
7.07
7.35
7.22
6.56
5.47
4.23
3.20
2.63
2.55
2.73
2.85
2.67
2.12
1.37
0.66
0.23
0.13
0.28
0.44
0.30
-0.43
-1.93
-4.19
-6.98
-9.85
-12.32
-14.04
-15.05
-15.72
-16.65
-18.34
-20.97
-24.26
-27.58
-30.10
-31.04
-29.85
-26.32
-20.74
-13.95
-7.30
-2.30
-0.13
-1.13
-4.49
-8.48
-11.02
-10.37
-5.82
2.15
12.11
22.16
30.59
36.20
38.57
37.86
34.64
29.67
23.71
17.52
11.83
7.25
4.13
2.44
1.70
1.21
0.29
-1.40
-3.72
-6.09
-7.84
-8.40
-7.61
-5.66
-2.98
-0.13
2.36
4.07
4.81
4.71
4.28
4.23
5.24
7.54
10.78
14.03
16.24
16.69
15.32
12.75
9.87
7.41
5.61
4.19
2.65
0.63
-1.90
-4.66
-7.22
-9.30
-10.87
-12.04
-12.92
-13.48
-13.52
-12.84
-11.37
-9.36
-7.37
-6.13
-6.23
-7.84
-10.55
-13.48
-15.52
-15.77
-13.89
-10.20
-5.49
-0.66
3.62
7.12
9.97
12.41
14.45
15.79
15.94
14.51
11.47
7.25
2.68
-1.35
-4.24
-5.81
-6.42
-6.70
-7.22
-8.24
-9.56
-10.63
-10.84
-9.80
-7.56
-4.58
-1.66
0.32
0.56
-1.43
-5.60
-11.21
-16.87
-20.92
-22.00
-19.69
-14.77
-8.93
-4.00
-1.19
-0.60
-1.42
-2.51
-3.05
-2.88
-2.34
-1.91
-1.78
-1.75
-1.40
-0.34
1.48
3.74
5.87
7.32
7.89
7.82
7.76
8.46
10.36
13.26
16.30
18.28
18.10
15.35
10.42
4.42
-1.26
-5.41
-7.30
-6.83
-4.47
-1.07
2.31
4.68
5.33
4.07
1.26
-2.38
-6.03
-9.10
-11.39
-13.07
-14.41
-15.49
-16.12
-15.93
-14.58
-12.04
-8.61
-4.85
-1.27
1.83
4.41
6.55
8.25
9.42
9.95
9.90
9.64
9.74
10.66
12.56
15.09
17.59
19.44
20.31
20.26
19.59
18.49
16.89
14.49
11.00
6.44
1.31
-3.65
-7.73
-10.56
-12.29
-13.38
-14.28
-15.21
-16.10
-16.77
-17.10
-17.06
-16.59
-15.39
-12.93
-8.66
-2.52
4.77
11.80
16.89
18.88
17.58
13.88
9.26
5.15
2.37
0.99
0.53
0.45
0.49
0.75
1.51
2.95
4.92
6.94
8.48
9.22
9.26
9.06
9.14
9.79
10.82
11.65
11.60
10.20
7.45
3.70
-0.48
-4.62
-8.47
-11.98
-15.11
-17.78
-19.76
-20.83
-20.80
-19.58
-17.09
-13.20
-7.81
-1.01
6.72
14.50
21.20
25.89
28.15
28.27
27.06
25.40
23.90
22.63
21.33
19.68
17.57
15.22
13.05
11.47
10.67
10.56
10.81
11.05
10.98
10.50
9.69
8.68
7.51
6.11
4.35
2.15
-0.37
-2.89
-5.06
-6.69
-7.88
-8.95
-10.17
-11.58
-12.87
-13.58
-13.31
-11.99
-9.87
-7.43
-5.10
-3.15
-1.62
-0.42
0.61
1.60
2.70
4.02
5.69
7.75
10.15
12.66
14.97
16.75
17.78
18.03
17.66
16.89
15.89
14.67
13.11
11.04
8.41
5.38
2.32
-0.30
-2.05
-2.73
-2.35
-1.22
0.19
1.38
1.84
1.25
-0.56
-3.47
-7.11
-10.90
-14.16
-16.24
-16.68
-15.39
-12.64
-8.98
-5.08
-1.46
1.63
4.20
6.41
8.45
10.33
11.92
13.05
13.63
13.79
13.83
14.04
14.61
15.47
16.37
17.00
17.18
16.92
16.41
15.85
15.31
14.66
13.65
12.10
10.05
7.76
5.64
3.97
2.83
2.05
1.30
0.32
-1.00
-2.60
-4.37
-6.23
-8.17
-10.12
-11.86
-13.01
-13.19
-12.20
-10.21
-7.63
-4.94
-2.38
0.10
2.71
5.53
8.31
10.54
11.78
11.97
11.60
11.41
11.99
13.35
14.94
15.93
15.72
14.25
12.05
9.86
8.29
7.49
7.18
6.89
6.24
5.07
3.52
1.83
0.18
-1.41
-3.02
-4.81
-6.81
-8.94
-10.97
-12.68
-13.92
-14.70
-15.14
-15.37
-15.46
-15.30
-14.71
-13.55
-11.82
-9.68
-7.32
-4.87
-2.31
0.51
3.71
7.31
11.25
15.41
19.63
23.76
27.60
30.84
33.11
34.03
33.33
31.00
27.26
22.59
17.59
12.88
8.92
5.89
3.65
1.79
-0.14
-2.39
-4.92
-7.48
-9.81
-11.85
-13.73
-15.66
-17.77
-20.07
-22.51
-25.05
-27.66
-30.13
-31.90
-32.11
-29.85
-24.71
-17.12
-8.38
-0.28
5.59
8.43
8.52
6.97
5.25
4.51
5.26
7.28
9.86
12.24
13.99
15.13
16.07
17.22
18.75
20.44
21.84
22.57
22.61
22.27
21.93
21.61
20.80
18.68
14.65
8.85
2.23
-3.75
-7.87
-9.66
-9.53
-8.42
-7.20
-6.33
-5.88
-5.91
-6.79
-9.23
-13.95
-21.17
-30.25
-39.80
-48.09
-53.69
-55.83
-54.54
-50.45
-44.38
-37.10
-29.25
-21.37
-14.08
-8.08
-3.99
-2.09
-2.09
-3.09
-3.80
-3.04
-0.13
4.83
11.03
17.21
22.16
25.10
25.81
24.64
22.21
19.13
15.75
12.10
7.95
3.04
-2.71
-9.10
-15.62
-21.57
-26.27
-29.22
-30.27
-29.60
-27.75
-25.46
-23.47
-22.30
-22.09
-22.62
-23.49
-24.32
-24.90
-25.08
-24.61
-22.98
-19.59
-14.05
-6.62
1.63
9.16
14.49
16.97
17.02
15.91
15.11
15.47
16.85
18.21
18.22
15.98
11.51
5.69
-0.11
-4.64
-7.25
-8.07
-7.77
-7.24
-7.14
-7.78
-9.10
-10.88
-12.81
-14.62
-16.02
-16.61
-16.05
-14.14
-11.05
-7.30
-3.69
-0.95
0.48
0.66
-0.04
-1.11
-2.19
-3.17
-4.10
-4.98
-5.69
-5.89
-5.23
-3.51
-0.82
2.53
6.09
9.40
12.17
14.16
15.29
15.53
14.95
13.69
11.97
10.06
8.29
7.04
6.66
7.39
9.18
11.58
13.77
14.78
13.84
10.72
5.82
0.01
-5.71
-10.63
-14.48
-17.38
-19.67
-21.60
-23.23
-24.53
-25.43
-25.99
-26.41
-26.92
-27.47
-27.68
-26.77
-23.89
-18.48
-10.64
-1.14
8.73
17.66
24.68
29.38
31.86
32.45
31.57
29.60
26.91
23.94
21.16
18.97
17.62
17.13
17.36
17.96
18.50
18.51
17.60
15.59
12.67
9.38
6.43
4.39
3.45
3.43
3.90
4.52
5.18
5.91
6.62
6.83
5.70
2.39
-3.46
-11.38
-20.10
-27.97
-33.63
-36.43
-36.52
-34.56
-31.26
-27.08
-22.13
-16.39
-10.03
-3.55
2.25
6.55
8.95
9.68
9.66
10.13
12.15
16.09
21.43
27.02
31.57
34.25
35.00
34.28
32.73
30.67
27.97
24.29
19.50
13.97
8.57
4.25
1.56
0.38
-0.03
-0.65
-2.22
-4.98
-8.63
-12.66
-16.62
-20.36
-23.94
-27.42
-30.73
-33.51
-35.34
-35.81
-34.77
-32.31
-28.67
-24.16
-19.06
-13.61
-8.09
-2.79
1.98
6.03
9.34
12.05
14.39
16.57
18.62
20.43
21.77
22.44
22.38
21.65
20.49
19.22
18.08
17.24
16.71
16.35
15.98
15.43
14.66
13.76
12.89
12.22
11.78
11.46
11.08
10.40
9.24
7.50
5.13
2.16
-1.32
-5.13
-9.03
-12.81
-16.35
-19.70
-22.97
-26.20
-29.23
-31.60
-32.77
-32.22
-29.77
-25.68
-20.54
-15.05
-9.70
-4.57
0.58
6.07
11.95
17.92
23.33
27.63
30.59
32.44
33.58
34.30
34.44
33.49
30.90
26.53
20.82
14.66
8.96
4.32
0.85
-1.69
-3.63
-5.14
-6.18
-6.64
-6.50
-5.92
-5.29
-5.03
-5.48
-6.88
-9.30
-12.65
-16.59
-20.47
-23.32
-24.15
-22.31
-17.86
-11.69
-5.23
0.06
3.23
4.09
3.13
1.11
-1.28
-3.59
-5.53
-6.79
-7.05
-6.09
-3.99
-1.20
1.61
3.86
5.28
6.02
6.52
7.26
8.48
10.19
12.18
14.19
15.96
17.23
17.78
17.46
16.33
14.78
13.49
13.25
14.58
17.50
21.43
25.37
28.24
29.22
27.97
24.65
19.77
14.00
8.01
2.29
-2.80
-7.10
-10.55
-13.13
-14.88
-15.91
-16.48
-16.99
-17.92
-19.64
-22.26
-25.59
-29.22
-32.65
-35.50
-37.49
-38.37
-37.83
-35.52
-31.18
-24.87
-17.13
-8.83
-0.93
5.87
11.26
15.26
18.00
19.48
19.56
18.15
15.41
11.87
8.27
5.24
3.02
1.46
0.12
-1.42
-3.35
-5.63
-8.15
-10.78
-13.42
-15.84
-17.64
-18.24
-17.11
-14.01
-9.19
-3.31
2.74
8.11
12.16
14.47
14.82
13.15
9.61
4.64
-1.01
-6.42
-10.72
-13.38
-14.36
-14.03
-12.96
-11.65
-10.33
-9.03
-7.69
-6.32
-5.09
-4.21
-3.82
-3.95
-4.54
-5.53
-6.96
-8.81
-10.82
-12.37
-12.60
-10.71
-6.37
0.07
7.54
14.70
20.23
23.35
23.84
21.99
18.44
13.95
9.25
4.88
1.20
-1.69
-3.87
-5.53
-6.88
-8.12
-9.44
-11.10
-13.32
-16.16
-19.40
-22.49
-24.76
-25.69
-25.07
-23.08
-20.01
-16.07
-11.24
-5.45
1.14
7.93
13.88
17.97
19.51
18.55
15.72
11.99
8.17
4.74
1.85
-0.48
-2.16
-2.97
-2.73
-1.47
0.47
2.52
4.07
4.63
3.99
2.13
-0.76
-4.30
-7.88
-10.67
-11.77
-10.57
-7.03
-1.88
3.60
7.99
10.21
9.83
7.13
2.87
-2.06
-6.82
-10.76
-13.45
-14.58
-14.10
-12.19
-9.28
-6.04
-3.20
-1.38
-0.86
-1.47
-2.52
-3.03
-2.04
0.91
5.48
10.67
15.17
18.03
19.06
18.80
18.18
17.84
17.83
17.59
16.36
13.61
9.29
3.76
-2.48
-9.04
-15.68
-22.22
-28.27
-33.22
-36.40
-37.34
-35.99
-32.82
-28.64
-24.27
-20.26
-16.78
-13.64
-10.43
-6.78
-2.50
2.24
6.96
10.88
13.21
13.39
11.37
7.71
3.45
-0.25
-2.54
-3.12
-2.27
-0.59
1.28
2.86
3.86
4.17
3.85
3.20
2.76
3.14
4.76
7.60
11.10
14.42
16.78
17.81
17.59
16.42
14.50
11.72
7.73
2.30
-4.39
-11.65
-18.44
-23.77
-27.05
-28.25
-27.79
-26.23
-24.05
-21.40
-18.30
-14.80
-11.23
-8.23
-6.44
-6.12
-6.84
-7.52
-6.84
-3.92
1.33
8.05
14.89
20.55
24.27
25.86
25.62
23.90
21.01
17.20
12.83
8.43
4.66
2.03
0.70
0.48
0.83
1.18
1.13
0.50
-0.73
-2.56
-5.03
-8.17
-11.74
-15.10
-17.20
-16.96
-13.65
-7.42
0.69
9.00
15.84
20.19
21.96
21.78
20.50
18.59
16.01
12.35
7.38
1.41
-4.64
-9.61
-12.61
-13.43
-12.57
-10.91
-9.31
-8.28
-7.99
-8.44
-9.57
-11.32
-13.44
-15.43
-16.59
-16.25
-14.11
-10.36
-5.78
-1.42
1.68
2.76
1.56
-1.72
-6.39
-11.48
-15.86
-18.56
-19.00
-17.17
-13.65
-9.34
-5.22
-1.97
0.15
1.29
1.80
2.01
2.10
2.07
1.88
1.53
1.18
1.12
1.69
3.14
5.48
8.42
11.41
13.72
14.73
14.08
11.85
8.56
5.02
2.08
0.30
-0.27
-0.08
0.11
-0.48
-2.26
-5.16
-8.65
-12.07
-14.86
-16.82
-17.97
-18.48
-18.43
-17.78
-16.44
-14.43
-11.89
-9.11
-6.36
-3.83
-1.56
0.48
2.37
4.22
6.16
8.31
10.80
13.70
17.09
21.05
25.66
30.85
36.28
41.24
44.71
45.70
43.58
38.41
30.92
22.32
13.81
6.30
0.24
-4.29
-7.39
-9.21
-9.90
-9.75
-9.16
-8.70
-8.92
-10.12
-12.27
-14.95
-17.52
-19.29
-19.76
-18.74
-16.40
-13.16
-9.59
-6.09
-2.86
0.18
3.19
6.27
9.21
11.59
12.94
13.05
12.15
10.81
9.74
9.46
10.15
11.65
13.66
15.95
18.40
20.93
23.40
25.45
26.60
26.42
24.77
21.91
18.43
15.00
12.09
9.76
7.79
5.79
3.48
0.79
-2.19
-5.39
-8.86
-12.75
-17.16
-21.89
-26.40
-29.88
-31.55
-30.92
-28.02
-23.32
-17.55
-11.47
-5.64
-0.36
4.35
8.59
12.50
16.12
19.36
21.95
23.55
23.80
22.54
19.95
16.59
13.22
10.54
8.87
8.04
7.52
6.72
5.32
3.38
1.31
-0.46
-1.71
-2.53
-3.26
-4.27
-5.75
-7.59
-9.52
-11.24
-12.71
-14.14
-15.95
-18.41
-21.44
-24.39
-26.27
-26.17
-23.67
-18.96
-12.77
-5.89
1.11
7.96
14.45
20.13
24.26
26.01
25.02
21.64
16.97
12.36
8.85
6.80
5.83
5.30
4.66
3.77
2.85
2.20
1.92
1.79
1.33
-0.03
-2.69
-6.70
-11.65
-16.71
-20.80
-22.94
-22.62
-20.05
-16.15
-12.22
-9.46
-8.51
-9.27
-11.03
-12.85
-13.88
-13.64
-12.03
-9.30
-5.96
-2.68
-0.12
1.27
1.49
0.96
0.41
0.51
1.60
3.62
6.17
8.84
11.31
13.50
15.36
16.92
18.20
19.32
20.49
21.89
23.56
25.21
26.39
26.64
25.78
23.98
21.65
19.16
16.62
13.91
10.89
7.62
4.42
1.67
-0.51
-2.51
-5.06
-8.92
-14.28
-20.56
-26.52
-30.74
-32.29
-31.03
-27.62
-23.08
-18.30
-13.73
-9.38
-5.09
-0.84
3.07
6.04
7.44
6.94
4.69
1.44
-1.71
-3.66
-3.72
-1.86
1.37
5.10
8.60
11.58
14.15
16.54
18.69
20.06
19.76
17.07
11.92
5.08
-2.12
-8.34
-12.81
-15.53
-17.17
-18.53
-20.19
-22.27
-24.54
-26.58
-28.02
-28.62
-28.17
-26.58
-23.81
-19.99
-15.47
-10.75
-6.37
-2.81
-0.35
0.97
1.32
1.15
0.98
1.35
2.65
4.93
7.96
11.26
14.42
17.21
19.69
22.13
24.72
27.40
29.72
30.97
30.44
27.73
23.00
16.92
10.51
4.69
0.04
-3.45
-6.24
-8.90
-11.79
-14.92
-17.97
-20.57
-22.53
-23.90
-24.91
-25.72
-26.34
-26.61
-26.34
-25.41
-23.69
-20.98
-16.92
-11.18
-3.73
4.89
13.61
21.22
26.84
30.37
32.44
33.99
35.75
37.82
39.70
40.64
40.00
37.56
33.47
28.08
21.79
15.07
8.44
2.59
-1.76
-4.11
-4.37
-2.98
-0.78
1.21
2.08
1.21
-1.68
-6.47
-12.65
-19.35
-25.39
-29.57
-30.98
-29.34
-25.12
-19.38
-13.46
-8.46
-4.92
-2.72
-1.24
0.27
2.40
5.31
8.73
12.09
14.84
16.65
17.52
17.72
17.54
17.06
16.06
14.09
10.85
6.44
1.53
-2.87
-5.75
-6.56
-5.41
-3.03
-0.39
1.68
2.75
2.79
2.00
0.58
-1.38
-3.86
-6.79
-9.91
-12.84
-15.24
-16.99
-18.24
-19.32
-20.62
-22.33
-24.42
-26.57
-28.32
-29.25
-29.04
-27.60
-25.04
-21.65
-17.79
-13.78
-9.83
-6.02
-2.34
1.21
4.56
7.58
10.06
11.85
12.90
13.32
13.33
13.19
13.10
13.11
13.11
12.86
12.15
10.87
9.20
7.52
6.31
5.92
6.44
7.63
9.00
9.95
9.97
8.72
6.17
2.59
-1.51
-5.43
-8.54
-10.45
-11.15
-11.09
-10.96
-11.41
-12.82
-15.09
-17.78
-20.24
-21.94
-22.64
-22.45
-21.71
-20.80
-19.94
-19.02
-17.66
-15.33
-11.57
-6.28
0.28
7.47
14.43
20.30
24.36
26.21
25.74
23.27
19.43
15.19
11.53
9.28
8.80
9.87
11.73
13.46
14.21
13.56
11.54
8.53
5.03
1.48
-1.80
-4.58
-6.63
-7.79
-8.01
-7.50
-6.65
-6.02
-6.05
-6.96
-8.64
-10.74
-12.83
-14.56
-15.75
-16.34
-16.35
-15.74
-14.47
-12.44
-9.65
-6.20
-2.37
1.43
4.83
7.57
9.63
11.19
12.50
13.73
14.90
15.87
16.48
16.71
16.67
16.57
16.51
16.43
16.08
15.21
13.77
11.97
10.25
9.01
8.42
8.27
8.12
7.48
6.06
3.94
1.53
-0.62
-2.05
-2.59
-2.44
-2.04
-1.89
-2.30
-3.27
-4.64
-6.08
-7.38
-8.45
-9.29
-9.93
-10.41
-10.80
-11.14
-11.51
-11.87
-11.97
-11.40
-9.73
-6.72
-2.50
2.46
7.57
12.34
16.57
20.32
23.71
26.71
29.06
30.35
30.33
29.02
26.83
24.44
22.56
21.73
22.13
23.50
25.30
26.87
27.62
27.29
26.02
24.30
22.78
22.00
22.15
22.99
23.91
24.15
23.03
20.20
15.69
9.96
3.74
-2.15
-7.04
-10.58
-12.90
-14.44
-15.82
-17.58
-20.01
-23.16
-26.94
-31.21
-35.84
-40.63
-45.27
-49.31
-52.36
-54.27
-55.19
-55.61
-56.05
-56.87
-58.08
-59.43
-60.62
-61.53
-62.39
-63.65
-65.79
-68.99
-73.01
-77.19
-80.70
-82.78
-82.95
-81.05
-77.13
-71.42
-64.17
-55.65
-46.07
-35.40
-23.30
-9.16
7.68
27.46
49.63
72.75
94.75
113.58
127.75
136.82
141.18
141.74
139.46
134.96
128.59
120.51
110.90
100.07
88.47
76.60
64.94
53.85
43.49
33.81
24.56
15.45
6.32
-2.77
-11.53
-19.59
-26.68
-32.79
-38.14
-42.95
-47.29
-50.93
-53.42
-54.33
-53.51
-51.20
-47.98
-44.54
-41.43
-38.89
-36.87
-35.15
-33.53
-31.93
-30.38
-28.99
-27.91
-27.25
-27.10
-27.47
-28.24
-29.18
-29.99
-30.38
-30.15
-29.23
-27.65
-25.58
-23.22
-20.89
-18.91
-17.53
-16.76
-16.37
-15.93
-14.98
-13.34
-11.13
-8.79
-6.75
-5.27
-4.14
-2.88
-0.90
2.11
5.96
10.01
13.34
15.24
15.45
14.35
12.74
11.55
11.38
12.33
14.00
15.74
16.97
17.43
17.23
16.72
16.24
15.90
15.56
14.92
13.67
11.70
9.10
6.12
3.03
-0.03
-2.97
-5.73
-8.13
-9.95
-10.95
-11.10
-10.63
-10.04
-9.89
-10.56
-12.12
-14.22
-16.32
-17.90
-18.61
-18.42
-17.51
-16.11
-14.42
-12.50
-10.42
-8.24
-6.12
-4.23
-2.69
-1.55
-0.78
-0.25
0.18
0.65
1.29
2.12
3.11
4.15
5.14
6.03
6.89
7.80
8.84
9.94
10.90
11.45
11.37
10.63
9.37
7.87
6.46
5.34
4.61
4.22
3.98
3.57
2.62
0.79
-2.08
-5.93
-10.37
-14.79
-18.47
-20.75
-21.19
-19.75
-16.82
-13.08
-9.29
-6.07
-3.75
-2.34
-1.55
-1.01
-0.48
0.02
0.31
0.24
-0.19
-0.77
-1.23
-1.24
-0.70
0.08
0.49
-0.12
-2.06
-5.08
-8.45
-11.08
-11.71
-9.22
-2.99
6.94
19.90
34.66
49.53
62.21
69.59
69.22
60.87
47.09
32.10
19.98
13.18
12.22
15.99
22.49
29.86
36.53
41.04
41.95
37.85
28.09
13.78
-2.01
-14.79
-19.89
-14.40
1.45
24.34
49.07
70.67
85.92
93.96
94.89
90.01
80.90
68.87
54.87
39.74
24.50
10.22
-2.27
-12.65
-20.92
-27.53
-33.02
-37.80
-41.96
-45.23
-47.23
-47.57
-46.21
-43.38
-39.75
-36.27
-33.87
-33.13
-34.01
-35.88
-37.78
-38.76
-38.16
-35.81
-31.96
-26.99
-21.11
-14.27
-6.29
2.91
12.97
23.07
32.07
39.03
43.59
46.25
48.16
50.57
54.37
59.70
66.00
72.32
77.68
81.36
83.06
82.84
81.11
78.43
75.18
71.24
65.90
58.22
47.68
34.98
22.29
12.67
8.82
11.64
19.56
28.98
35.79
37.07
32.30
23.30
13.12
4.40
-1.93
-7.07
-13.52
-23.69
-38.64
-57.43
-77.66
-96.35
-110.70
-118.38
-117.45
-106.40
-84.89
-54.90
-21.39
8.49
27.76
32.44
23.22
4.91
-16.09
-34.51
-47.81
-55.89
-59.71
-60.09
-57.37
-51.79
-43.85
-34.14
-22.91
-9.86
5.30
22.00
38.71
53.59
65.54
74.70
81.75
86.71
88.30
84.58
74.76
60.57
46.44
37.68
38.00
47.39
61.93
75.42
81.92
78.09
64.21
43.78
22.06
3.98
-7.43
-12.02
-12.03
-10.64
-10.20
-11.19
-12.35
-11.90
-9.01
-4.43
0.13
3.33
5.51
8.82
16.07
29.03
47.07
67.18
85.27
97.92
103.64
103.15
98.47
91.77
84.41
76.73
68.39
58.88
47.97
35.74
22.50
8.64
-5.47
-19.51
-33.15
-46.12
-58.18
-69.13
-78.67
-86.39
-91.80
-94.63
-95.00
-93.50
-90.98
-88.16
-85.25
-82.01
-77.88
-72.46
-65.85
-58.63
-51.63
-45.56
-40.72
-37.00
-33.99
-31.26
-28.50
-25.67
-22.93
-20.58
-18.90
-18.05
-17.96
-18.35
-18.84
-19.12
-19.04
-18.66
-18.15
-17.65
-17.25
-16.99
-16.90
-17.01
-17.39
-18.14
-19.36
-21.27
-24.07
-27.87
-32.53
-37.52
-42.01
-45.11
-46.29
-45.63
-43.81
-41.95
-41.06
-41.76
-44.04
-47.32
-50.69
-53.10
-53.64
-51.59
-46.65
-38.98
-29.27
-18.72
-8.81
-1.00
3.60
4.48
1.79
-3.70
-10.94
-18.75
-26.05
-32.00
-35.93
-37.46
-36.51
-33.38
-28.72
-23.44
-18.46
-14.50
-11.81
-10.23
-9.25
-8.22
-6.62
-4.25
-1.22
2.06
5.10
7.51
9.09
9.89
10.10
9.94
9.59
9.20
8.82
8.47
8.02
7.28
5.94
3.77
0.73
-2.91
-6.65
-9.97
-12.67
-15.00
-17.62
-21.31
-26.55
-33.24
-40.67
-47.78
-53.56
-57.34
-58.92
-58.46
-56.25
-52.50
-47.34
-40.83
-33.11
-24.41
-15.08
-5.50
3.93
12.89
21.09
28.28
34.29
39.06
42.70
45.44
47.54
49.22
50.62
51.84
53.09
54.66
56.83
59.55
62.21
63.57
62.12
56.65
46.85
33.64
18.92
4.93
-6.55
-14.67
-19.51
-21.56
-21.20
-18.42
-13.00
-4.87
5.61
17.73
30.84
44.50
58.41
71.87
83.43
91.01
92.66
87.46
76.38
62.15
48.19
37.20
30.10
25.98
22.92
19.13
13.60
6.43
-1.64
-9.93
-18.33
-27.33
-37.57
-49.33
-62.26
-75.99
-90.18
-104.77
-120.03
-136.22
-153.20
-170.11
-185.49
-197.86
-207.38
-214.88
-221.46
-227.87
-234.17
-239.85
-244.11
-246.22
-245.92
-245.55
-247.20
-251.65
-257.85
-263.44
-265.98
-263.89
-256.82
-245.65
-235.38
-230.22
-232.12
-240.30
-252.29
-265.63
-278.54
-289.66
-297.51
-304.60
-311.98
-318.73
-322.44
-320.86
-313.69
-302.67
-290.41
-252.29
-176.76
-66.57
61.14
184.39
287.31
363.57
414.25
444.08
458.88
459.85
448.66
428.41
403.23
378.39
357.35
341.26
329.73
322.16
315.00
306.27
296.27
287.27
282.05
282.31
288.45
298.69
311.78
325.04
337.25
348.98
362.53
380.84
405.68
436.20
468.28
495.14
507.92
499.61
467.64
414.76
347.69
274.18
200.41
129.80
63.64
1.91
-55.08
-106.22
-150.11
-185.91
-213.85
-235.03
-250.84
-262.46
-270.78
-276.29
-279.06
-278.73
-274.72
-266.72
-255.15
-241.32
-226.87
-213.14
-200.52
-188.38
-175.60
-161.45
-146.07
-130.42
-115.63
-102.36
-90.54
-79.62
-69.10
-59.05
-50.12
-43.16
-38.78
-36.97
-37.08
-38.08
-38.93
-39.04
-38.41
-37.64
-37.51
-38.57
-40.80
-43.53
-45.82
-46.92
-46.69
-45.85
-45.86
-48.62
-56.17
-70.14
-91.26
-118.61
-149.15
-178.02
-199.81
-210.37
-208.65
-197.26
-181.58
-167.60
-159.51
-158.15
-161.08
-163.89
-162.12
-152.82
-135.07
-109.73
-78.64
-43.95
-7.75
28.14
62.22
93.40
121.26
146.12
168.96
190.80
211.88
231.01
245.56
252.41
249.38
236.45
216.03
192.06
168.20
146.32
125.95
105.27
82.76
58.74
35.62
16.94
5.45
1.60
3.10
5.51
3.97
-5.00
-22.12
-44.72
-67.31
-82.97
-85.23
-69.90
-36.22
12.68
70.33
128.16
177.41
211.40
227.40
227.46
217.67
205.63
197.33
194.61
194.73
192.18
181.76
161.38
133.06
101.66
72.39
48.79
31.91
21.00
14.74
12.21
12.85
16.00
20.28
23.86
25.19
24.07
21.88
20.97
23.40
29.72
38.64
47.60
54.21
57.61
59.10
61.20
66.28
75.31
87.49
100.84
113.19
123.00
129.60
133.55
135.50
135.94
135.32
134.34
133.83
134.14
134.50
132.64
126.80
115.17
96.72
71.56
40.84
6.08
-32.08
-73.99
-119.99
-166.52
-207.11
-232.97
-235.41
-208.99
-153.75
-76.66
10.28
93.78
165.83
222.92
265.43
295.46
315.02
325.90
329.29
327.12
307.21
265.19
203.21
127.91
45.08
-43.70
-138.18
-236.31
-331.61
-414.78
-475.39
-508.94
-518.55
-513.08
-506.26
-503.86
-506.60
-511.59
-514.60
-510.18
-495.25
-469.56
-435.29
-395.84
-353.91
-312.33
-273.44
-238.92
-208.53
-182.17
-159.22
-138.60
-118.84
-97.94
-74.87
-49.67
-23.59
1.69
23.81
40.70
51.40
56.82
60.12
65.24
75.58
92.73
116.15
143.31
171.08
196.87
219.42
238.88
255.71
269.95
280.73
286.46
285.54
277.22
262.01
241.54
218.08
193.76
170.17
148.24
128.49
111.28
97.05
86.20
78.86
74.66
72.66
71.65
70.50
68.50
65.61
62.33
59.43
57.59
57.15
58.00
59.84
62.34
65.40
69.07
73.43
78.50
84.25
90.61
97.63
105.37
113.73
122.32
130.37
136.91
140.96
141.78
138.79
131.58
119.87
103.76
83.95
61.80
39.17
17.80
-1.13
-17.38
-31.41
-43.94
-55.59
-66.67
-77.39
-88.07
-99.19
-111.06
-123.40
-135.07
-144.27
-149.16
-148.73
-143.17
-133.94
-123.07
-112.44
-103.01
-94.86
-87.56
-80.83
-74.81
-70.03
-66.90
-65.25
-64.24
-62.64
-59.48
-54.61
-48.71
-43.07
-38.78
-36.31
-35.24
-34.54
-33.13
-30.44
-26.63
-22.50
-18.99
-16.66
-15.43
-14.69
-13.71
-12.19
-10.42
-9.10
-8.78
-9.43
-10.35
-10.51
-9.09
-5.90
-1.35
3.97
9.77
16.19
23.64
32.26
41.58
50.48
57.60
61.86
62.96
61.47
58.52
55.34
52.73
50.94
49.64
48.32
46.58
44.39
41.98
39.71
37.72
35.88
33.80
31.08
27.55
23.36
18.94
14.75
11.04
7.82
4.86
1.90
-1.17
-4.24
-7.06
-9.42
-11.32
-13.09
-15.30
-18.42
-22.58
-27.34
-31.70
-34.52
-34.90
-32.61
-28.23
-22.92
-17.94
-14.20
-11.94
-10.83
-10.27
-9.79
-9.25
-8.84
-8.78
-9.12
-9.66
-10.03
-10.01
-9.63
-9.24
-9.30
-10.10
-11.63
-13.55
-15.39
-16.79
-17.65
-18.17
-18.71
-19.64
-21.19
-23.39
-26.02
-28.77
-31.33
-33.53
-35.37
-36.99
-38.48
-39.77
-40.53
-40.31
-38.66
-35.42
-30.72
-24.95
-18.59
-12.04
-5.56
0.60
6.15
10.78
14.30
16.86
18.98
21.45
25.01
29.90
35.76
41.69
46.69
50.18
52.29
53.89
56.15
60.02
65.72
72.64
79.63
85.57
89.93
93.03
95.98
100.23
107.17
117.69
131.93
149.04
167.03
182.94
193.30
195.20
187.37
170.81
148.74
125.46
104.92
89.31
78.65
71.20
64.53
56.58
46.26
33.44
18.61
2.57
-13.80
-29.46
-43.24
-53.93
-60.63
-63.06
-61.81
-58.28
-54.41
-52.08
-52.64
-56.48
-63.09
-71.32
-79.86
-87.78
-94.61
-100.38
-105.22
-109.10
-111.71
-112.59
-111.47
-108.51
-104.36
-99.93
-95.89
-92.43
-89.10
-85.11
-79.75
-72.74
-64.37
-55.34
-46.45
-38.36
-31.48
-26.04
-22.12
-19.62
-18.15
-17.01
-15.40
-12.64
-8.52
-3.45
1.79
6.35
9.65
11.61
12.47
12.56
12.13
11.30
10.15
8.87
7.79
7.29
7.57
8.59
9.91
10.91
10.91
9.36
6.08
1.20
-4.80
-11.30
-17.68
-23.40
-28.01
-31.07
-32.16
-30.88
-27.11
-21.17
-13.89
-6.48
-0.12
4.39
6.84
7.53
6.99
5.66
3.78
1.39
-1.43
-4.45
-7.21
-9.18
-9.94
-9.41
-7.90
-6.06
-4.63
-4.18
-4.85
-6.34
-8.04
-9.38
-10.11
-10.41
-10.79
-11.69
-13.24
-15.16
-16.89
-17.88
-17.86
-16.94
-15.50
-14.03
-12.86
-12.20
-12.16
-12.81
-14.33
-16.89
-20.57
-25.13
-30.02
-34.40
-37.38
-38.37
-37.34
-34.91
-32.15
-30.20
-29.80
-31.09
-33.59
-36.55
-39.37
-41.92
-44.56
-47.85
-52.17
-57.39
-62.90
-67.94
-71.99
-75.09
-77.80
-80.76
-84.31
-88.11
-91.30
-92.86
-92.13
-89.21
-84.87
-80.18
-75.93
-72.23
-68.52
-63.90
-57.72
-49.98
-41.26
-32.43
-24.14
-16.54
-9.43
-2.62
3.64
8.53
10.91
9.84
5.04
-3.03
-13.38
-24.90
-36.75
-48.48
-59.97
-71.09
-81.70
-91.56
-100.64
-109.27
-118.23
-128.61
-141.42
-157.23
-175.77
-195.86
-215.53
-232.37
-244.13
-249.36
-247.74
-240.16
-228.22
-213.59
-197.47
-180.35
-162.25
-142.95
-122.23
-99.87
-75.53
-48.82
-19.59
11.62
43.30
73.03
97.99
115.81
125.41
127.54
124.61
119.94
116.46
115.50
116.22
116.16
112.67
104.58
92.93
80.54
70.39
64.04
60.93
58.93
55.80
50.53
43.72
37.00
31.98
29.40
29.03
30.15
32.07
34.57
37.76
41.93
47.21
53.45
60.09
66.30
71.14
73.96
74.70
73.92
72.60
71.53
70.79
69.79
67.66
63.89
58.87
53.89
50.50
49.83
51.98
55.98
60.13
62.62
61.94
57.25
48.52
36.69
23.81
12.98
7.75
11.06
24.06
45.38
71.37
97.34
119.22
134.86
144.37
149.31
151.43
151.73
150.25
146.73
141.25
134.56
127.65
121.13
114.87
108.18
100.36
91.23
81.22
71.17
61.86
53.88
47.69
43.76
42.55
44.24
48.39
53.93
59.42
63.67
66.19
67.15
66.95
65.68
62.85
57.64
49.41
38.38
25.84
13.68
3.70
-3.17
-7.30
-10.08
-13.17
-17.70
-23.73
-30.26
-35.79
-39.14
-40.03
-39.20
-38.18
-38.59
-41.65
-47.70
-56.15
-65.72
-74.70
-81.40
-84.48
-83.17
-77.47
-68.17
-56.72
-44.90
-34.32
-26.04
-20.17
-15.86
-11.65
-5.96
2.30
13.29
26.26
39.79
52.39
62.94
71.03
76.91
81.15
84.31
86.70
88.34
89.18
89.26
88.78
87.96
86.81
85.06
82.26
78.17
73.06
67.83
63.69
61.60
61.75
63.42
65.32
66.29
65.91
64.66
63.67
64.07
66.37
70.29
74.92
79.24
82.69
85.37
88.00
91.50
96.47
102.76
109.36
114.53
116.26
112.85
103.26
87.42
66.12
40.92
13.83
-12.82
-36.78
-56.14
-69.82
-77.86
-81.44
-82.54
-83.31
-85.47
-89.83
-96.25
-103.84
-111.39
-117.78
-122.27
-124.60
-124.91
-123.47
-120.47
-115.80
-109.25
-100.62
-90.13
-78.47
-66.82
-56.50
-48.66
-44.07
-43.02
-45.46
-51.17
-59.91
-71.47
-85.56
-101.58
-118.40
-134.26
-147.17
-155.45
-158.35
-156.15
-149.92
-141.08
-131.21
-122.46
-118.02
-122.09
-138.52
-168.65
-209.36
-252.80
-288.42
-306.62
-302.19
-275.76
-232.63
-179.93
-123.72
-67.59
-13.28
37.65
82.45
117.11
137.89
143.33
135.71
120.85
106.26
98.51
100.82
112.36
129.10
146.02
159.26
167.28
170.65
170.68
168.12
162.45
152.36
136.71
115.65
90.91
65.52
43.07
26.90
19.56
22.38
35.34
56.93
83.95
111.47
133.13
142.12
132.73
102.42
53.27
-7.57
-69.26
-120.02
-150.31
-155.49
-136.55
-98.83
-49.53
5.01
61.02
117.37
174.26
231.20
285.75
333.28
368.13
385.38
382.30
358.87
317.25
260.88
193.72
120.12
44.84
-26.87
-89.88
-140.21
-176.07
-198.46
-210.81
-217.92
-224.45
-233.63
-246.50
-261.74
-276.32
-286.62
-289.89
-285.22
-273.93
-258.91
-243.45
-230.07
-219.85
-212.53
-207.11
-202.48
-197.83
-192.66
-186.64
-179.41
-170.56
-159.88
-147.47
-133.92
-120.04
-106.49
-93.44
-80.51
-66.93
-52.10
-35.94
-19.07
-2.58
12.40
25.14
35.53
43.97
51.03
57.15
62.61
67.55
72.14
76.65
81.27
86.01
90.60
94.57
97.60
99.75
101.57
103.93
107.64
113.08
120.01
127.67
135.05
141.23
145.61
147.96
148.34
146.96
144.07
139.85
134.36
127.65
119.93
111.56
103.10
95.03
87.59
80.58
73.47
65.65
56.74
46.82
36.39
26.17
16.89
9.14
3.36
-0.10
-1.03
0.61
4.46
9.72
15.23
19.68
21.98
21.60
18.76
14.31
9.48
5.45
3.00
2.26
2.86
4.13
5.53
6.80
8.03
9.45
11.16
13.08
14.89
16.23
16.81
16.59
15.66
14.13
12.06
9.42
6.20
2.50
-1.42
-5.21
-8.57
-11.35
-13.63
-15.59
-17.49
-19.53
-21.85
-24.51
-27.53
-30.81
-34.11
-37.04
-39.09
-39.80
-38.87
-36.28
-32.26
-27.22
-21.59
-15.77
-10.10
-4.88
-0.41
3.08
5.50
6.99
7.89
8.67
9.73
11.28
13.26
15.41
17.39
18.94
19.91
20.31
20.23
19.80
19.14
18.38
17.62
16.89
16.18
15.41
14.49
13.33
11.92
10.30
8.55
6.78
5.11
3.61
2.35
1.32
0.42
-0.49
-1.60
-3.07
-4.97
-7.24
-9.74
-12.29
-14.65
-16.54
-17.64
-17.62
-16.29
-13.63
-9.90
-5.56
-1.13
2.94
6.38
9.08
11.04
12.31
12.98
13.16
13.04
12.83
12.69
12.68
12.77
12.82
12.72
12.42
11.92
11.27
10.48
9.56
8.51
7.36
6.19
5.07
4.04
3.08
2.08
0.97
-0.27
-1.59
-2.89
-4.13
-5.36
-6.72
-8.37
-10.39
-12.73
-15.18
-17.44
-19.16
-20.00
-19.72
-18.18
-15.43
-11.68
-7.27
-2.61
1.93
6.10
9.75
12.84
15.32
17.17
18.31
18.74
18.56
17.95
17.22
16.61
16.24
16.07
15.90
15.54
14.90
14.01
12.98
11.91
10.78
9.47
7.81
5.72
3.24
0.57
-2.06
-4.44
-6.47
-8.16
-9.61
-10.97
-12.42
-14.09
-16.07
-18.34
-20.70
-22.80
-24.21
-24.45
-23.21
-20.43
-16.36
-11.50
-6.42
-1.61
2.66
6.39
9.71
12.76
15.55
17.94
19.73
20.82
21.29
21.31
21.10
20.76
20.20
19.29
17.94
16.23
14.40
12.72
11.28
9.99
8.61
6.93
4.88
2.60
0.35
-1.67
-3.44
-5.08
-6.78
-8.67
-10.73
-12.87
-15.01
-17.13
-19.28
-21.41
-23.34
-24.66
-24.93
-23.81
-21.23
-17.45
-12.91
-8.09
-3.37
1.01
4.94
8.31
10.96
12.75
13.58
13.50
12.75
11.65
10.50
9.48
8.61
7.80
6.92
5.89
4.73
3.50
2.34
1.42
0.88
0.70
0.72
0.69
0.41
-0.21
-1.10
-2.09
-2.92
-3.51
-3.98
-4.52
-5.28
-6.14
-6.72
-6.49
-5.04
-1.97
2.73
8.75
15.57
22.63
29.47
35.77
41.37
46.10
50.55
55.19
60.34
65.99
71.80
77.30
82.12
86.11
89.31
93.19
99.03
107.44
118.10
129.90
141.40
151.50
159.75
166.16
173.24
183.18
197.22
215.06
234.97
254.59
271.86
285.67
295.88
306.10
320.06
340.47
367.91
400.45
434.57
466.64
494.31
498.38
466.39
393.12
283.53
151.62
14.73
-112.76
-222.55
-312.00
-381.94
-431.80
-461.82
-473.38
-469.62
-455.32
-435.89
-415.88
-398.07
-383.55
-370.05
-355.14
-337.34
-316.69
-294.68
-273.27
-253.96
-237.41
-223.58
-210.78
-197.59
-183.28
-167.97
-152.49
-137.81
-124.55
-112.81
-102.45
-92.62
-82.76
-72.71
-62.59
-52.75
-43.45
-34.81
-26.81
-19.55
-13.02
-7.39
-2.85
0.56
2.98
4.75
6.22
7.61
8.81
9.67
10.03
9.99
9.87
10.04
10.63
11.38
11.84
11.22
9.10
5.39
0.36
-5.51
-11.70
-17.57
-22.41
-25.44
-26.10
-24.22
-20.47
-16.22
-13.11
-12.45
-14.65
-19.04
-24.17
-28.45
-30.52
-29.80
-26.46
-21.08
-14.53
-7.68
-1.30
4.19
8.28
10.76
11.59
11.02
9.57
8.05
7.34
7.94
9.70
11.75
12.98
12.61
10.69
8.09
6.02
5.36
6.14
7.63
8.81
8.92
7.81
5.80
3.48
1.09
-1.47
-4.72
-9.22
-15.29
-22.71
-30.63
-37.68
-42.43
-43.96
-42.29
-38.40
-33.89
-30.15
-27.76
-26.25
-24.30
-20.59
-14.48
-6.25
3.08
12.22
20.19
26.41
30.69
33.13
33.68
32.25
28.90
23.80
17.36
10.11
2.36
-5.64
-13.31
-19.56
-22.58
-19.89
-9.53
8.81
32.67
56.88
73.61
77.06
65.83
43.29
16.21
-8.66
-27.02
-38.24
-44.37
-48.21
-51.29
-53.58
-54.99
-54.69
-53.65
-54.07
-58.36
-67.49
-80.13
-92.69
-101.04
-102.58
-97.25
-88.21
-79.84
-75.40
-75.18
-76.29
-74.25
-65.63
-50.01
-29.73
-8.99
8.44
20.96
29.37
35.90
42.94
52.13
61.47
69.60
75.48
78.87
80.22
80.16
78.97
76.49
72.25
65.77
57.44
48.03
38.56
30.01
22.96
17.43
12.93
8.73
4.13
-0.97
-6.42
-11.84
-16.81
-21.00
-24.27
-26.68
-28.42
-29.77
-30.81
-31.70
-32.56
-33.53
-34.76
-36.39
-38.48
-40.89
-43.22
-44.70
-44.51
-42.09
-37.33
-30.71
-23.15
-15.68
-9.10
-3.86
-0.00
2.66
4.44
5.72
7.05
9.11
12.62
18.21
26.10
36.03
47.21
58.40
68.22
75.44
79.28
79.54
76.68
71.68
65.68
59.68
54.22
49.39
44.86
40.20
34.99
28.91
21.69
13.16
3.30
-7.72
-19.41
-31.03
-41.66
-50.27
-55.95
-57.87
-55.45
-48.43
-36.89
-21.36
-2.75
17.68
38.50
58.25
75.62
89.56
99.53
105.55
108.20
108.55
107.77
106.84
106.25
105.98
105.52
104.20
101.50
97.20
91.57
85.19
78.77
72.84
67.66
63.07
58.47
52.86
44.99
33.87
19.29
2.33
-14.68
-28.79
-37.52
-39.98
-37.24
-31.96
-27.29
-25.67
-28.13
-34.27
-42.83
-52.35
-61.67
-70.04
-76.96
-81.98
-84.69
-84.83
-82.50
-78.28
-73.10
-67.93
-63.37
-59.36
-55.07
-49.25
-40.78
-29.18
-15.04
0.13
14.34
25.68
32.90
35.66
34.50
30.57
25.19
19.44
13.98
9.04
4.66
0.95
-1.88
-3.54
-3.97
-3.50
-2.85
-2.88
-4.23
-6.99
-10.69
-14.49
-17.62
-19.72
-20.99
-22.03
-23.52
-25.82
-28.62
-30.93
-31.35
-28.56
-21.81
-11.31
1.86
16.14
30.03
42.57
53.50
63.17
72.25
81.41
91.03
101.10
111.21
120.57
128.26
133.56
136.33
137.27
137.87
140.02
145.21
153.99
165.40
177.37
187.37
193.55
195.48
194.17
191.21
187.67
183.27
176.33
164.75
147.37
124.90
99.84
75.35
53.52
34.58
16.95
-1.81
-23.72
-49.51
-78.49
-108.95
-138.91
-166.83
-191.71
-213.21
-231.77
-248.46
-264.46
-280.36
-295.58
-308.43
-317.15
-320.21
-317.29
-309.98
-301.37
-294.77
-292.35
-294.41
-299.85
-307.95
-317.45
-326.88
-334.78
-339.48
-339.01
-331.45
-315.77
-292.60
-265.69
-238.01
-211.03
-185.34
-161.98
-143.06
-131.33
-128.52
-133.66
-143.90
-151.50
-146.79
-122.80
-78.66
-19.78
44.68
105.53
169.40
232.36
285.82
322.85
342.08
345.82
337.23
319.62
297.33
275.30
255.62
240.05
229.28
222.04
215.89
208.88
200.16
190.92
183.01
175.93
169.40
163.46
157.50
150.63
142.14
131.04
117.80
103.58
88.45
73.11
58.92
46.79
37.31
30.94
27.05
25.92
28.04
32.85
39.82
48.70
58.59
68.47
84.36
105.51
129.75
155.00
179.38
199.74
217.39
232.91
246.26
257.06
263.42
263.79
259.08
249.21
234.15
214.29
189.79
161.33
130.14
97.01
63.58
31.71
2.59
-23.10
-44.88
-62.99
-77.57
-88.46
-95.85
-99.44
-99.18
-95.83
-90.72
-85.34
-81.09
-78.50
-76.95
-75.26
-71.86
-65.80
-57.50
-48.60
-41.23
-37.28
-37.27
-40.07
-43.57
-45.51
-44.66
-41.54
-38.10
-36.95
-40.51
-50.44
-67.28
-90.02
-115.57
-138.27
-150.70
-145.70
-119.64
-74.96
-20.54
30.86
67.24
81.63
73.96
49.74
16.52
-19.79
-56.52
-93.57
-131.04
-167.28
-198.39
-219.65
-227.60
-221.63
-204.34
-180.07
-153.03
-125.80
-98.84
-71.39
-43.02
-14.71
11.08
31.51
44.83
51.47
53.86
55.33
58.48
64.03
70.70
75.92
77.08
72.66
62.62
48.25
31.53
14.39
-1.83
-16.45
-29.30
-40.32
-49.16
-55.02
-56.84
-53.71
-45.50
-33.21
-18.95
-5.43
4.84
10.28
10.59
6.54
-0.54
-9.30
-18.80
-28.46
-37.92
-46.86
-54.92
-61.81
-67.39
-71.77
-75.24
-78.20
-80.92
-83.53
-86.03
-88.34
-90.35
-92.00
-93.18
-93.70
-93.34
-91.85
-89.12
-85.26
-80.70
-76.03
-71.92
-68.96
-67.44
-67.27
-67.94
-68.64
-68.45
-66.60
-62.73
-56.97
-49.88
-42.17
-34.52
-27.30
-20.61
-14.41
-8.53
-2.91
2.48
7.54
12.17
16.19
19.48
22.02
23.88
25.26
26.38
27.39
28.28
28.97
29.34
29.25
28.59
27.21
24.99
21.90
18.15
14.11
10.29
7.08
4.64
2.84
1.41
0.03
-1.47
-3.17
-5.11
-7.34
-9.93
-12.82
-15.67
-17.90
-18.83
-17.98
-15.28
-11.16
-6.32
-1.52
2.81
6.62
10.19
13.85
17.76
21.74
24.81
26.21
25.92
24.55
22.86
21.42
20.59
20.46
20.85
20.91
20.12
18.59
16.87
15.36
14.12
12.98
11.74
10.21
7.00
1.51
-5.48
-12.54
-18.71
-23.80
-27.99
-31.44
-34.15
-39.87
-50.45
-64.23
-77.84
-89.31
-98.59
-106.41
-113.06
-118.05
-128.09
-145.96
-167.50
-185.52
-196.18
-200.04
-199.60
-197.09
-193.65
-201.99
-228.16
-266.35
-304.54
-334.71
-355.06
-367.08
-372.84
-374.10
-388.48
-425.43
-478.88
-534.51
-582.92
-622.72
-656.70
-688.30
-618.22
-415.27
-137.09
124.26
318.40
443.02
516.05
556.97
580.27
594.89
589.37
557.88
509.08
459.51
420.65
395.32
381.46
375.39
373.93
362.39
333.50
292.91
253.00
222.30
202.53
191.81
187.25
186.70
180.98
165.41
143.08
120.87
103.20
90.51
81.54
74.88
69.71
61.84
49.12
33.17
17.74
5.75
-2.05
-4.72
-2.31
4.41
12.56
19.42
23.75
25.85
26.52
26.52
26.37
25.93
24.53
21.12
14.87
5.84
-4.41
-13.66
-19.37
-19.29
-12.27
1.12
18.45
36.06
50.18
58.53
60.23
56.12
48.75
41.80
37.87
37.29
38.34
38.67
37.28
34.55
32.41
34.04
42.65
58.78
79.80
101.78
118.36
128.27
133.59
138.39
147.32
164.19
189.40
219.23
246.97
265.07
266.68
245.37
196.50
111.28
-3.19
-122.72
-217.48
-268.38
-273.98
-245.95
-201.24
-158.40
-120.66
-85.30
-49.97
-16.08
11.11
25.37
22.94
3.33
-29.77
-69.00
-106.62
-137.84
-162.20
-182.13
-200.05
-215.77
-226.55
-228.35
-217.49
-193.23
-158.80
-120.82
-87.10
-64.03
-54.85
-59.55
-75.86
-100.26
-129.80
-162.74
-198.33
-235.80
-273.11
-306.61
-331.78
-344.82
-343.96
-330.47
-308.07
-281.48
-254.54
-228.91
-203.93
-177.49
-147.37
-112.35
-72.80
-30.38
12.66
54.10
92.28
126.31
156.07
182.03
205.17
226.81
248.37
270.80
293.92
315.90
333.36
342.41
340.08
325.65
301.07
270.19
237.26
205.40
175.76
147.74
119.78
90.50
59.47
27.32
-4.67
-35.25
-63.61
-89.38
-112.17
-131.07
-144.46
-150.55
-148.49
-139.24
-125.81
-112.32
-102.35
-97.32
-95.87
-94.56
-89.70
-78.91
-62.01
-40.99
-19.33
-0.99
10.77
14.45
11.21
4.89
1.16
5.58
21.27
47.16
77.64
103.90
116.45
108.07
76.26
24.31
-39.46
-104.00
-158.58
-195.29
-210.82
-206.15
-185.03
-152.27
-112.73
-71.43
-33.59
-4.04
14.46
22.74
25.82
31.53
47.44
77.63
120.82
171.20
220.92
263.69
296.39
319.30
334.83
345.83
354.22
360.36
363.83
364.04
362.33
360.39
359.67
360.79
363.77
368.68
375.65
385.82
399.85
419.52
443.20
465.38
478.43
476.13
457.05
424.27
385.76
349.44
324.71
315.09
317.91
326.43
333.75
336.05
331.39
321.87
309.50
301.03
300.44
307.90
320.21
333.00
343.18
347.71
347.98
308.93
214.79
71.62
-94.55
-253.79
-387.46
-478.85
-540.26
-582.90
-614.05
-632.10
-635.66
-626.60
-608.44
-585.66
-561.51
-539.48
-519.35
-501.07
-480.84
-456.62
-428.86
-400.12
-373.57
-350.98
-333.72
-319.81
-307.09
-291.37
-270.40
-244.65
-216.92
-191.03
-169.82
-155.32
-146.65
-142.19
-138.94
-134.75
-128.72
-121.08
-112.65
-104.08
-95.95
-88.01
-80.12
-71.91
-63.33
-54.64
-46.16
-38.01
-29.86
-21.08
-10.82
1.42
15.51
30.65
45.46
58.33
67.78
72.76
73.00
68.76
60.69
50.17
38.63
27.38
17.32
8.97
2.45
-1.86
-3.80
-3.67
-1.19
3.56
9.83
16.08
20.41
20.99
17.89
12.28
5.98
2.77
6.21
18.43
38.84
64.19
89.29
110.66
126.43
136.54
144.81
155.78
172.97
196.77
224.56
251.71
275.81
295.42
296.53
269.48
212.71
136.02
54.74
-10.44
-57.25
-86.84
-100.22
-98.18
-81.78
-52.87
-14.69
26.89
59.73
72.34
60.21
26.00
-22.43
-69.91
-110.45
-142.11
-165.91
-184.57
-200.56
-213.49
-222.33
-226.52
-225.26
-218.80
-207.22
-191.39
-172.84
-153.13
-132.46
-110.76
-88.27
-65.19
-42.47
-20.63
-0.38
17.47
32.37
44.60
54.61
62.55
68.33
71.33
71.46
68.95
64.44
59.05
54.18
50.96
49.90
50.80
52.91
55.50
57.87
59.31
59.23
57.11
52.61
45.68
36.64
26.03
14.62
3.13
-7.91
-18.11
-27.29
-35.29
-41.97
-47.19
-50.81
-52.78
-53.09
-51.85
-49.20
-45.32
-40.39
-34.65
-28.52
-22.64
-17.72
-14.33
-12.66
-12.29
-12.28
-11.52
-9.19
-5.14
-0.02
4.98
8.57
9.88
8.61
5.12
0.08
-5.73
-11.57
-16.74
-20.59
-22.61
-22.62
-20.91
-18.34
-16.14
-15.62
-17.77
-22.90
-30.60
-39.81
-49.04
-56.73
-61.52
-62.47
-59.24
-52.16
-42.11
-30.27
-17.80
-5.56
5.98
16.72
26.80
36.40
45.75
54.97
64.15
73.17
81.64
88.92
94.25
96.98
96.82
93.91
88.68
81.69
73.45
64.36
54.81
45.20
36.00
27.64
20.33
13.95
8.05
2.01
-4.74
-12.53
-21.29
-30.53
-39.45
-47.14
-52.67
-55.33
-54.70
-50.72
-43.63
-33.98
-22.45
-9.87
2.91
15.03
25.60
33.91
39.49
42.26
42.52
40.86
37.99
34.59
31.17
28.10
25.57
23.65
22.26
21.22
20.31
19.25
17.84
15.89
13.27
9.91
5.89
1.44
-3.05
-7.21
-10.82
-13.98
-17.00
-20.29
-23.97
-27.78
-31.06
-32.96
-32.74
-30.03
-24.96
-18.01
-9.97
-1.63
6.22
12.94
18.09
21.43
22.99
22.99
21.85
20.04
18.00
16.04
14.30
12.72
11.14
9.35
7.17
4.56
1.62
-1.46
-4.49
-7.38
-10.20
-13.10
-16.24
-19.71
-23.50
-27.55
-31.81
-36.20
-40.56
-44.48
-47.33
-48.32
-46.81
-42.56
-35.90
-27.66
-18.92
-10.72
-3.78
1.50
5.03
6.92
7.36
6.60
5.05
3.21
1.63
0.74
0.72
1.39
2.25
2.70
2.21
0.58
-1.99
-5.00
-7.83
-9.94
-11.15
-11.65
-11.94
-12.69
-14.46
-17.47
-21.56
-26.14
-30.43
-33.59
-34.96
-34.13
-31.03
-25.86
-19.07
-11.28
-3.14
4.75
11.92
18.05
22.94
26.52
28.80
29.85
29.84
29.01
27.63
25.96
24.18
22.38
20.53
18.55
16.31
13.73
10.77
7.46
3.88
0.14
-3.68
-7.54
-11.47
-15.55
-19.82
-24.25
-28.63
-32.53
-35.32
-36.37
-35.08
-31.18
-24.79
-16.37
-6.68
3.47
13.35
22.43
30.36
36.92
41.94
45.31
46.99
47.10
45.90
43.75
41.01
37.93
34.62
31.07
27.25
23.18
18.96
14.78
10.83
7.24
4.03
1.14
-1.55
-4.23
-7.10
-10.39
-14.29
-18.80
-23.66
-28.23
-31.67
-33.13
-32.08
-28.47
-22.75
-15.60
-7.72
0.34
8.21
15.53
21.95
27.12
30.80
33.06
34.22
34.74
35.01
35.22
35.44
35.60
35.67
35.69
35.63
35.43
34.85
33.65
31.62
28.72
25.03
20.77
16.12
11.21
6.11
0.88
-4.42
-9.72
-14.87
-19.69
-23.86
-26.96
-28.46
-27.91
-25.03
-19.92
-13.04
-5.13
2.93
10.30
16.40
20.89
23.77
25.29
25.84
25.84
25.63
25.36
24.99
24.40
23.43
22.02
20.15
17.86
15.24
12.39
9.47
6.65
4.10
1.82
-0.37
-2.87
-6.12
-10.43
-15.72
-21.55
-27.18
-31.81
-34.84
-35.94
-35.10
-32.48
-28.28
-22.72
-16.08
-8.80
-1.45
5.30
10.86
14.85
17.16
17.93
17.45
16.08
14.19
12.10
10.11
8.38
7.02
5.93
4.89
3.65
1.97
-0.30
-3.15
-6.41
-9.84
-13.19
-16.30
-19.12
-21.79
-24.59
-27.81
-31.63
-35.92
-40.14
-43.46
-44.93
-43.84
-39.91
-33.42
-25.04
-15.66
-6.17
2.73
10.46
16.62
20.93
23.29
23.84
22.96
21.18
19.07
17.07
15.42
14.09
12.96
11.80
10.43
8.67
6.38
3.43
-0.26
-4.69
-9.67
-14.83
-19.65
-23.66
-26.67
-28.83
-30.58
-32.36
-34.23
-35.73
-35.93
-33.89
-29.01
-21.43
-11.95
-1.76
7.96
16.33
22.92
27.58
30.30
31.15
30.27
28.00
24.89
21.66
18.97
17.22
16.38
15.98
15.33
13.75
10.90
6.94
2.39
-2.07
-5.95
-9.14
-11.91
-14.79
-18.27
-22.66
-27.88
-33.50
-38.73
-42.61
-44.21
-42.87
-38.46
-31.37
-22.46
-12.75
-3.13
5.77
13.64
20.33
25.67
29.49
31.70
32.38
31.83
30.51
28.87
27.25
25.78
24.43
23.06
21.50
19.61
17.30
14.55
11.41
8.00
4.44
0.80
-2.94
-6.89
-11.20
-16.03
-21.39
-27.18
-33.00
-38.21
-41.94
-43.28
-41.55
-36.55
-28.68
-18.81
-8.09
2.41
11.94
20.04
26.50
31.24
34.23
35.56
35.53
34.59
33.30
32.13
31.36
31.02
30.88
30.63
29.99
28.73
26.79
24.20
21.11
17.67
14.04
10.35
6.64
2.88
-0.94
-4.86
-8.93
-13.24
-17.87
-22.83
-27.89
-32.49
-35.76
-36.75
-34.74
-29.54
-21.60
-11.85
-1.47
8.48
17.22
24.29
29.49
32.80
34.33
34.34
33.30
31.79
30.41
29.54
29.27
29.38
29.43
29.04
27.95
26.21
24.01
21.53
18.86
15.92
12.58
8.78
4.64
0.44
-3.57
-7.20
-10.49
-13.65
-17.03
-20.93
-25.58
-30.97
-36.72
-42.15
-46.27
-48.05
-46.73
-42.04
-34.34
-24.55
-13.85
-3.39
5.94
13.57
19.27
23.00
24.92
25.35
24.75
23.64
22.49
21.57
20.94
20.45
19.85
18.92
17.52
15.62
13.27
10.57
7.63
4.61
1.65
-1.14
-3.75
-6.18
-8.51
-10.79
-13.10
-15.56
-18.39
-21.82
-26.01
-30.78
-35.54
-39.29
-40.90
-39.49
-34.78
-27.14
-17.52
-7.06
3.18
12.40
20.07
25.89
29.77
31.77
32.24
31.67
30.65
29.61
28.69
27.71
26.27
24.04
20.91
17.08
12.94
8.89
5.12
1.59
-1.87
-5.44
-9.13
-12.80
-16.23
-19.34
-22.25
-25.21
-28.56
-32.49
-36.98
-41.77
-46.34
-50.04
-52.16
-52.08
-49.43
-44.18
-36.62
-27.32
-16.92
-6.01
4.88
15.21
24.40
31.83
37.04
39.92
40.85
40.58
39.95
39.63
39.78
40.16
40.25
39.57
37.93
35.48
32.56
29.52
26.55
23.67
20.72
17.51
13.78
9.36
4.06
-2.09
-8.85
-15.68
-21.84
-26.63
-29.67
-31.02
-31.13
-30.59
-29.84
-28.95
-27.60
-25.23
-21.25
-15.32
-7.54
1.56
11.05
19.84
26.97
31.74
33.74
32.69
28.44
20.97
10.79
-0.97
-12.62
-22.51
-29.70
-34.48
-38.16
-42.36
-48.02
-54.62
-60.15
-61.66
-56.43
-43.17
-22.67
2.43
28.52
52.22
71.27
84.91
93.63
98.75
101.93
104.81
108.81
114.84
122.85
131.74
139.51
143.90
143.26
137.19
126.67
113.53
99.44
85.20
70.62
55.11
38.51
21.65
6.34
-5.24
-11.22
-10.90
-4.90
5.41
18.65
33.95
50.67
67.84
83.70
96.17
103.06
102.62
94.04
77.60
54.82
28.11
0.39
-25.49
-46.88
-62.17
-71.09
-74.72
-74.99
-74.19
-74.60
-78.16
-88.07
-104.60
-124.29
-141.05
-149.35
-146.90
-135.07
-117.39
-97.65
-78.84
-62.19
-47.45
-33.81
-20.84
-8.73
1.93
10.42
16.24
18.58
17.20
13.07
7.94
3.30
-0.22
-3.04
-6.33
-11.49
-20.55
-34.22
-50.77
-66.97
-79.68
-87.55
-91.31
-93.74
-99.00
-109.22
-126.90
-152.43
-183.61
-216.07
-244.03
-261.03
-262.09
-236.02
-182.04
-111.26
-41.39
13.01
47.11
65.25
76.34
87.79
103.39
120.32
133.95
140.74
139.44
130.71
114.97
95.79
78.80
69.08
67.58
72.32
80.50
90.50
102.32
116.48
132.90
149.38
162.30
166.75
160.29
144.55
125.02
109.17
103.83
113.15
136.71
169.48
203.02
228.74
240.62
236.71
218.71
190.49
157.37
124.10
93.50
66.19
41.72
19.87
1.50
-11.36
-16.47
-12.51
-0.49
16.00
31.85
42.03
43.24
34.73
18.22
-3.12
-25.99
-48.16
-68.86
-88.36
-107.24
-125.80
-144.14
-162.69
-182.78
-206.56
-235.71
-269.42
-302.87
-327.68
-335.00
-320.04
-285.43
-241.44
-202.45
-181.21
-184.09
-209.85
-252.11
-303.55
-358.82
-414.43
-466.51
-508.96
-534.03
-535.64
-512.91
-471.58
-421.87
-374.05
-334.14
-302.46
-275.15
-247.64
-217.67
-186.13
-155.96
-130.05
-109.87
-95.29
-85.35
-79.07
-75.63
-74.23
-73.54
-71.52
-65.77
-54.18
-35.50
-9.76
21.86
57.59
95.65
134.62
173.56
211.57
247.38
279.07
304.38
321.17
328.23
325.65
314.89
298.65
280.64
265.29
257.13
259.36
272.07
291.17
308.88
316.34
307.19
280.33
240.30
194.93
151.82
115.68
87.89
67.85
54.85
48.68
48.68
52.35
54.89
50.61
35.43
9.14
-24.06
-57.12
-82.59
-95.29
-93.59
-79.25
-56.19
-28.77
-0.53
26.31
50.79
72.77
92.65
111.23
129.56
148.34
167.14
183.67
194.09
194.34
182.08
158.10
126.44
92.82
62.33
37.56
18.19
2.06
-13.01
-27.90
-41.96
-53.81
-62.35
-67.43
-69.68
-69.96
-68.79
-66.24
-62.11
-56.41
-49.61
-42.54
-35.95
-30.03
-24.16
-16.91
-6.61
7.94
26.83
48.74
71.32
91.86
108.21
119.31
125.23
126.54
123.66
116.50
104.69
88.32
68.50
47.48
27.92
11.98
0.51
-7.19
-12.87
-18.43
-25.14
-33.20
-41.72
-49.21
-54.25
-56.02
-54.55
-50.56
-45.13
-39.26
-33.48
-27.87
-22.23
-16.40
-10.58
-5.36
-1.48
0.53
0.68
-0.31
-1.32
-1.20
0.69
4.21
8.56
12.55
15.15
15.82
14.61
12.13
9.41
7.73
8.51
12.86
21.19
32.67
45.17
55.62
60.96
59.09
49.69
34.29
15.75
-2.71
-18.42
-29.81
-36.51
-39.10
-38.75
-36.81
-34.61
-33.28
-33.62
-35.96
-40.10
-45.16
-49.71
-52.04
-50.66
-44.80
-34.70
-21.55
-7.02
7.25
20.25
31.68
41.74
50.62
57.99
62.95
64.31
61.06
52.89
40.25
24.11
5.45
-14.96
-36.57
-58.61
-79.81
-98.34
-112.23
-119.98
-121.11
-116.27
-106.94
-94.87
-81.61
-68.28
-55.58
-43.99
-33.81
-25.27
-18.44
-13.28
-9.67
-7.44
-6.37
-6.15
-6.44
-6.91
-7.35
-7.79
-8.45
-9.66
-11.67
-14.44
-17.63
-20.67
-23.01
-24.33
-24.72
-24.67
-24.91
-26.21
-29.08
-33.40
-38.45
-42.92
-45.33
-44.50
-39.89
-31.73
-20.80
-8.09
5.59
19.62
33.64
47.29
60.21
72.08
82.69
91.96
99.89
106.39
111.17
113.85
114.05
111.59
106.59
99.38
90.46
80.33
69.48
58.32
47.13
36.10
25.23
14.54
3.97
-6.48
-16.75
-26.82
-36.70
-46.46
-56.15
-65.66
-74.57
-82.13
-87.37
-89.47
-88.04
-83.37
-76.36
-68.25
-60.22
-53.06
-47.10
-42.31
-38.40
-34.95
-31.49
-27.51
-22.57
-16.56
-9.70
-2.63
3.79
8.82
12.10
13.71
14.13
13.96
13.68
13.46
13.19
12.66
11.72
10.43
8.97
7.55
6.13
4.43
1.99
-1.64
-6.58
-12.49
-18.56
-23.74
-26.96
-27.48
-24.99
-19.72
-12.27
-3.45
5.93
15.24
24.01
31.92
38.67
43.95
47.43
48.97
48.62
46.70
43.73
40.30
36.95
34.06
31.76
30.00
28.52
26.92
24.74
21.64
17.48
12.51
7.31
2.58
-1.04
-3.26
-4.20
-4.34
-4.33
-4.79
-6.22
-8.91
-12.96
-18.19
-24.04
-29.53
-33.39
-34.40
-31.71
-25.22
-15.58
-4.00
8.12
19.58
29.57
37.66
43.72
47.77
49.95
50.57
50.06
49.02
48.01
47.43
47.39
47.67
47.82
47.35
45.93
43.55
40.54
37.42
34.64
32.43
30.60
28.77
26.45
23.35
19.47
15.05
10.49
6.12
2.14
-1.50
-5.02
-8.77
-13.18
-18.55
-24.97
-32.10
-39.20
-45.18
-48.88
-49.41
-46.41
-40.21
-31.66
-21.93
-12.09
-2.97
5.01
11.70
17.13
21.40
24.61
26.92
28.54
29.68
30.51
31.06
31.24
30.91
30.00
28.52
26.65
24.62
22.64
20.84
19.23
17.71
16.06
14.02
11.37
8.00
4.07
-0.02
-3.65
-6.28
-7.59
-7.74
-7.30
-7.08
-7.83
-10.07
-13.89
-18.97
-24.74
-30.42
-35.16
-38.10
-38.56
-36.11
-30.80
-23.14
-14.03
-4.54
4.36
11.94
17.84
22.01
24.62
25.95
26.32
26.03
25.34
24.51
23.76
23.26
23.05
22.99
22.77
22.08
20.68
18.59
16.07
13.52
11.23
9.24
7.32
5.06
2.19
-1.28
-4.97
-8.30
-10.75
-12.08
-12.41
-12.20
-12.03
-12.44
-13.74
-16.01
-19.04
-22.43
-25.53
-27.64
-28.07
-26.36
-22.45
-16.71
-9.88
-2.85
3.55
8.82
12.81
15.64
17.57
18.78
19.40
19.47
19.14
18.61
18.12
17.80
17.64
17.44
16.93
15.90
14.30
12.22
9.86
7.37
4.93
2.61
0.48
-1.46
-3.29
-5.10
-6.97
-8.93
-10.93
-12.86
-14.71
-16.59
-18.71
-21.29
-24.39
-27.79
-30.98
-33.25
-33.93
-32.61
-29.27
-24.30
-18.36
-12.18
-6.35
-1.18
3.23
6.93
10.00
12.49
14.43
15.91
17.13
18.46
20.29
22.96
26.60
31.09
36.05
40.96
45.36
48.92
51.55
53.35
54.45
54.89
54.63
53.61
51.95
50.02
48.37
47.51
47.53
47.96
47.79
45.87
41.25
33.58
23.14
10.67
-2.89
-16.57
-29.42
-40.50
-48.91
-54.05
-55.82
-54.92
-52.72
-50.87
-50.70
-52.82
-56.93
-62.13
-67.34
-71.74
-74.97
-77.02
-78.06
-78.16
-77.29
-75.41
-72.59
-69.14
-65.48
-62.04
-59.11
-56.73
-54.77
-53.00
-51.26
-49.51
-47.80
-46.27
-44.99
-43.99
-43.21
-42.64
-42.35
-42.46
-43.12
-44.32
-45.80
-46.95
-47.01
-45.18
-40.94
-34.12
-24.98
-14.10
-2.27
9.67
20.82
30.40
37.83
42.85
45.59
46.55
46.37
45.59
44.55
43.33
41.86
40.10
38.14
36.14
34.29
32.66
31.14
29.48
27.39
24.67
21.22
17.19
12.87
8.63
4.84
1.72
-0.70
-2.63
-4.44
-6.56
-9.40
-13.20
-17.89
-23.06
-27.99
-31.77
-33.59
-32.93
-29.70
-24.27
-17.28
-9.54
-1.77
5.43
11.67
16.74
20.59
23.36
25.29
26.64
27.63
28.34
28.73
28.72
28.26
27.40
26.24
24.89
23.44
21.91
20.28
18.49
16.46
14.13
11.42
8.29
4.76
0.97
-2.87
-6.51
-9.83
-12.92
-16.06
-19.62
-23.77
-28.26
-32.34
-35.00
-35.30
-32.80
-27.74
-20.95
-13.50
-6.31
0.13
5.75
10.72
15.14
18.96
21.93
23.80
24.50
24.18
23.16
21.79
20.27
18.67
16.92
14.94
12.73
10.40
8.15
6.17
4.55
3.21
1.99
0.67
-0.91
-2.80
-4.98
-7.37
-9.90
-12.62
-15.61
-19.03
-22.95
-27.24
-31.48
-34.98
-36.91
-36.52
-33.46
-27.87
-20.39
-11.98
-3.60
4.01
10.48
15.75
19.98
23.35
26.03
28.07
29.52
30.42
30.83
30.83
30.51
29.87
28.84
27.36
25.35
22.84
19.90
16.64
13.13
9.44
5.60
1.72
-2.02
-5.35
-8.01
-9.84
-10.90
-11.57
-12.47
-14.32
-17.72
-22.81
-29.13
-35.66
-41.12
-44.33
-44.58
-41.73
-36.15
-28.44
-19.28
-9.33
0.79
10.42
18.87
25.57
30.19
32.76
33.60
33.23
32.18
30.85
29.49
28.20
26.96
25.70
24.35
22.81
21.03
18.93
16.44
13.56
10.34
6.92
3.45
0.07
-3.13
-6.17
-9.12
-12.02
-14.93
-17.93
-21.16
-24.74
-28.77
-33.09
-37.25
-40.54
-42.17
-41.54
-38.40
-32.93
-25.59
-16.98
-7.69
1.74
10.83
19.11
26.11
31.50
35.11
37.06
37.68
37.42
36.70
35.79
34.77
33.59
32.17
30.46
28.50
26.38
24.16
21.92
19.72
17.63
15.70
13.88
12.00
9.79
6.99
3.53
-0.41
-4.40
-7.99
-10.87
-13.08
-14.98
-17.13
-20.04
-23.96
-28.72
-33.74
-38.19
-41.22
-42.18
-40.77
-37.10
-31.57
-24.73
-17.17
-9.38
-1.81
5.19
11.26
16.06
19.38
21.20
21.70
21.26
20.37
19.45
18.75
18.23
17.70
16.88
15.58
13.79
11.63
9.30
6.94
4.56
2.07
-0.66
-3.65
-6.86
-10.10
-13.20
-16.02
-18.53
-20.85
-23.19
-25.83
-28.97
-32.78
-37.24
-42.18
-47.26
-52.01
-55.83
-58.15
-58.44
-56.36
-51.82
-44.99
-36.32
-26.42
-15.95
-5.56
4.21
12.96
20.45
26.55
31.27
34.79
37.43
39.55
41.50
43.42
45.19
46.51
46.98
46.30
44.50
41.85
38.82
35.84
33.13
30.64
28.12
25.31
22.09
18.55
14.94
11.52
8.44
5.65
2.96
0.12
-3.09
-6.80
-11.01
-15.58
-20.23
-24.49
-27.71
-29.25
-28.56
-25.49
-20.30
-13.74
-6.73
-0.14
5.43
9.73
12.78
14.73
15.72
15.90
15.42
14.54
13.60
12.94
12.75
13.03
13.48
13.70
13.31
12.13
10.30
8.21
6.34
5.00
4.21
3.64
2.82
1.36
-0.80
-3.37
-5.84
-7.77
-9.01
-9.80
-10.65
-12.12
-14.53
-17.87
-21.77
-25.62
-28.76
-30.55
-30.44
-28.14
-23.64
-17.41
-10.32
-3.49
2.08
5.88
8.09
9.41
10.75
12.73
15.39
18.27
20.66
22.01
22.12
21.15
19.47
17.36
14.96
12.31
9.51
6.76
4.36
2.55
1.29
0.21
-1.23
-3.50
-6.79
-10.89
-15.31
-19.52
-23.16
-26.20
-28.88
-31.56
-34.50
-37.67
-40.75
-43.19
-44.38
-43.86
-41.38
-36.95
-30.80
-23.32
-15.02
-6.55
1.40
8.17
13.32
16.74
18.69
19.66
20.13
20.43
20.68
20.82
20.81
20.68
20.54
20.45
20.36
20.05
19.29
17.91
15.93
13.55
11.00
8.43
5.91
3.36
0.74
-1.94
-4.62
-7.22
-9.80
-12.49
-15.48
-18.88
-22.56
-26.14
-29.03
-30.59
-30.33
-28.01
-23.72
-17.83
-10.86
-3.43
3.92
10.71
16.58
21.26
24.62
26.67
27.57
27.54
26.85
25.66
24.07
22.10
19.73
17.00
14.02
10.97
8.01
5.28
2.83
0.65
-1.34
-3.25
-5.21
-7.34
-9.74
-12.44
-15.44
-18.63
-21.90
-25.14
-28.35
-31.63
-35.14
-38.96
-42.94
-46.55
-48.96
-49.25
-46.68
-41.03
-32.70
-22.61
-11.93
-1.75
7.19
14.53
20.22
24.37
27.15
28.71
29.29
29.14
28.59
27.95
27.43
27.12
26.92
26.66
26.08
25.06
23.49
21.39
18.86
16.01
13.03
10.11
7.45
5.16
3.14
1.13
-1.25
-4.34
-8.24
-12.76
-17.46
-21.78
-25.34
-28.05
-30.14
-31.98
-33.91
-35.98
-37.89
-39.08
-38.97
-37.20
-33.77
-29.05
-23.57
-17.89
-12.44
-7.47
-3.19
0.24
2.65
3.97
4.32
4.06
3.73
3.92
5.00
6.99
9.51
11.91
13.52
13.96
13.39
12.37
11.71
12.08
13.66
16.11
18.63
20.31
20.40
18.58
15.07
10.58
6.12
2.67
0.82
0.51
1.09
1.57
1.14
-0.45
-2.71
-4.70
-5.49
-4.57
-2.12
1.22
4.64
7.53
9.60
10.90
11.55
11.64
11.21
10.27
8.92
7.44
6.17
5.44
5.39
5.91
6.67
7.24
7.22
6.35
4.60
2.15
-0.75
-3.78
-6.66
-9.25
-11.53
-13.60
-15.61
-17.68
-19.79
-21.81
-23.51
-24.77
-25.58
-26.07
-26.42
-26.72
-26.90
-26.74
-25.93
-24.16
-21.20
-16.94
-11.41
-4.83
2.37
9.59
16.15
21.47
25.25
27.54
28.67
29.08
29.13
29.00
28.67
28.05
27.07
25.77
24.24
22.58
20.80
18.79
16.43
13.62
10.41
6.97
3.54
0.34
-2.52
-5.08
-7.56
-10.27
-13.50
-17.43
-22.06
-27.09
-31.94
-35.86
-38.03
-37.78
-34.80
-29.32
-22.13
-14.37
-7.25
-1.61
2.30
4.90
6.99
9.34
12.35
15.92
19.51
22.46
24.29
24.82
24.18
22.63
20.37
17.55
14.25
10.67
7.05
3.74
0.92
-1.39
-3.40
-5.37
-7.48
-9.69
-11.77
-13.46
-14.68
-15.58
-16.55
-17.99
-20.07
-22.60
-25.02
-26.57
-26.60
-24.80
-21.32
-16.69
-11.63
-6.78
-2.50
1.11
4.14
6.68
8.68
9.97
10.35
9.76
8.37
6.56
4.85
3.68
3.29
3.61
4.36
5.14
5.65
5.76
5.54
5.15
4.65
3.99
2.96
1.30
-1.14
-4.29
-7.87
-11.47
-14.71
-17.30
-19.07
-19.97
-19.92
-18.81
-16.52
-12.97
-8.23
-2.58
3.52
9.42
14.52
18.37
20.77
21.86
21.97
21.52
20.83
20.08
19.27
18.33
17.18
15.77
14.10
12.22
10.16
7.96
5.61
3.10
0.41
-2.47
-5.53
-8.72
-11.94
-15.16
-18.40
-21.74
-25.23
-28.73
-31.89
-34.12
-34.81
-33.50
-30.09
-24.81
-18.11
-10.58
-2.74
4.98
12.20
18.63
24.06
28.38
31.61
33.89
35.40
36.30
36.70
36.62
36.08
35.10
33.79
32.36
31.07
30.22
30.06
30.71
32.08
33.83
35.48
36.53
36.68
35.99
34.86
33.79
33.16
32.91
32.56
31.52
29.36
26.23
22.76
19.87
18.34
18.59
20.63
24.18
28.95
34.72
41.27
48.30
55.27
61.51
66.28
68.99
69.26
67.06
62.60
56.30
48.62
40.05
31.05
22.03
13.43
5.66
-1.02
-6.57
-11.28
-15.68
-20.29
-25.44
-31.09
-36.76
-41.82
-45.62
-47.80
-48.34
-47.55
-46.06
-44.62
-43.96
-44.60
-46.61
-49.57
-52.58
-54.59
-54.73
-52.61
-48.37
-42.60
-36.03
-29.34
-23.03
-17.42
-12.79
-9.31
-7.05
-5.86
-5.41
-5.22
-4.87
-4.17
-3.22
-2.34
-1.88
-2.11
-3.00
-4.34
-5.81
-7.15
-8.28
-9.27
-10.27
-11.36
-12.51
-13.61
-14.58
-15.48
-16.47
-17.71
-19.33
-21.26
-23.34
-25.42
-27.43
-29.36
-31.18
-32.67
-33.39
-32.78
-30.37
-25.95
-19.75
-12.34
-4.47
3.03
9.48
14.35
17.33
18.33
17.56
15.46
12.69
9.91
7.67
6.22
5.56
5.43
5.53
5.57
5.36
4.83
3.96
2.78
1.31
-0.38
-2.22
-4.09
-5.86
-7.40
-8.60
-9.45
-9.96
-10.27
-10.57
-11.09
-12.03
-13.51
-15.47
-17.67
-19.74
-21.20
-21.61
-20.66
-18.25
-14.56
-9.95
-4.95
-0.10
4.16
7.56
9.99
11.48
12.13
12.03
11.29
10.03
8.46
6.87
5.51
4.55
4.00
3.68
3.37
2.84
1.98
0.81
-0.59
-2.18
-3.96
-5.92
-8.07
-10.33
-12.58
-14.71
-16.68
-18.56
-20.52
-22.72
-25.22
-27.87
-30.35
-32.16
-32.83
-31.98
-29.44
-25.33
-20.05
-14.17
-8.29
-2.89
1.75
5.58
8.68
11.15
13.04
14.39
15.24
15.71
16.00
16.29
16.66
16.98
17.02
16.54
15.46
13.87
12.02
10.18
8.51
6.99
5.44
3.67
1.57
-0.84
-3.46
-6.14
-8.87
-11.72
-14.75
-17.89
-20.85
-23.13
-24.23
-23.82
-21.92
-18.82
-14.96
-10.67
-6.14
-1.45
3.29
7.84
11.85
15.07
17.51
19.45
21.31
23.36
25.52
27.39
28.47
28.41
27.23
25.30
23.11
21.06
19.28
17.65
15.92
13.89
11.52
8.89
6.17
3.47
0.81
-1.90
-4.86
-8.19
-11.93
-15.88
-19.61
-22.58
-24.26
-24.30
-22.65
-19.55
-15.43
-10.73
-5.83
-1.03
3.41
7.17
9.90
11.33
11.41
10.39
8.73
7.00
5.62
4.81
4.54
4.73
5.24
6.03
7.01
8.00
8.71
8.84
8.18
6.76
4.87
2.86
1.04
-0.53
-2.01
-3.67
-5.74
-8.32
-11.39
-14.79
-18.34
-21.73
-24.54
-26.27
-26.50
-25.06
-22.08
-17.99
-13.29
-8.44
-3.74
0.58
4.35
7.39
9.56
10.95
11.79
12.43
13.10
13.84
14.50
14.90
14.98
14.80
14.52
14.24
13.90
13.34
12.38
10.98
9.21
7.24
5.20
3.21
1.29
-0.56
-2.40
-4.34
-6.55
-9.20
-12.39
-16.00
-19.68
-22.91
-25.14
-26.01
-25.44
-23.60
-20.78
-17.26
-13.20
-8.67
-3.79
1.18
5.82
9.64
12.30
13.74
14.16
14.00
13.68
13.47
13.48
13.60
13.66
13.44
12.80
11.64
9.98
7.94
5.73
3.54
1.51
-0.41
-2.29
-4.19
-6.07
-7.79
-9.16
-10.16
-10.97
-11.93
-13.41
-15.57
-18.29
-21.08
-23.22
-23.99
-22.87
-19.73
-14.86
-8.94
-2.78
2.81
7.27
10.38
12.22
13.09
13.38
13.46
13.53
13.68
13.82
13.81
13.50
12.82
11.83
10.66
9.43
8.26
7.17
6.15
5.18
4.24
3.31
2.31
1.09
-0.49
-2.53
-4.98
-7.72
-10.56
-13.39
-16.14
-18.79
-21.21
-23.17
-24.32
-24.32
-22.97
-20.30
-16.59
-12.28
-7.83
-3.64
-0.03
2.86
4.95
6.27
6.95
7.14
7.00
6.73
6.46
6.32
6.36
6.60
6.97
7.34
7.54
7.38
6.74
5.55
3.85
1.78
-0.53
-2.96
-5.45
-8.03
-10.81
-13.87
-17.28
-20.96
-24.60
-27.77
-29.89
-30.43
-29.09
-25.84
-20.97
-15.02
-8.57
-2.15
3.88
9.25
13.80
17.36
19.82
21.13
21.41
20.88
19.83
18.52
17.10
15.66
14.20
12.75
11.34
9.94
8.54
7.02
5.28
3.25
0.99
-1.37
-3.73
-6.08
-8.57
-11.46
-14.98
-19.22
-23.95
-28.70
-32.80
-35.60
-36.66
-35.84
-33.28
-29.30
-24.31
-18.69
-12.82
-7.02
-1.57
3.28
7.37
10.63
13.08
14.80
15.85
16.30
16.21
15.71
14.96
14.16
13.41
12.70
11.87
10.66
8.84
6.34
3.32
0.06
-3.10
-5.94
-8.45
-10.83
-13.36
-16.32
-19.85
-23.97
-28.46
-32.92
-36.78
-39.35
-40.04
-38.46
-34.61
-28.85
-21.81
-14.16
-6.52
0.70
7.21
12.84
17.51
21.12
23.65
25.07
25.42
24.81
23.43
21.63
19.78
18.28
17.42
17.29
17.73
18.41
18.92
18.88
18.01
16.22
13.61
10.38
6.73
2.81
-1.36
-5.84
-10.66
-15.75
-20.83
-25.42
-28.94
-30.83
-30.77
-28.66
-24.72
-19.27
-12.76
-5.60
1.77
8.91
15.39
20.89
25.22
28.43
30.75
32.42
33.61
34.30
34.42
33.90
32.80
31.31
29.62
27.80
25.81
23.49
20.74
17.60
14.29
11.05
8.08
5.43
2.95
0.40
-2.48
-5.85
-9.76
-14.14
-18.80
-23.50
-27.91
-31.61
-34.14
-35.07
-34.06
-31.00
-26.03
-19.50
-11.85
-3.61
4.73
12.66
19.73
25.55
29.93
32.89
34.62
35.41
35.49
35.00
34.00
32.52
30.69
28.69
26.73
24.90
23.18
21.41
19.43
17.15
14.63
12.02
9.46
7.02
4.66
2.27
-0.23
-2.84
-5.48
-8.06
-10.51
-12.95
-15.55
-18.50
-21.82
-25.24
-28.19
-29.97
-29.97
-27.86
-23.70
-17.92
-11.08
-3.76
3.57
10.57
16.92
22.32
26.44
29.08
30.23
30.10
29.13
27.81
26.56
25.63
25.00
24.49
23.82
22.77
21.21
19.18
16.85
14.51
12.40
10.68
9.37
8.31
7.26
6.00
4.40
2.52
0.54
-1.34
-2.98
-4.41
-5.78
-7.29
-9.14
-11.44
-14.22
-17.38
-20.73
-23.93
-26.50
-27.94
-27.77
-25.77
-21.99
-16.77
-10.60
-4.08
2.31
8.19
13.28
17.42
20.52
22.57
23.66
24.02
23.88
23.49
23.00
22.44
21.76
20.90
19.81
18.56
17.24
15.93
14.66
13.34
11.86
10.09
8.06
5.89
3.81
2.07
0.79
-0.09
-0.76
-1.51
-2.59
-4.13
-6.15
-8.54
-11.10
-13.66
-16.12
-18.43
-20.57
-22.53
-24.20
-25.26
-25.31
-23.93
-20.88
-16.28
-10.58
-4.44
1.44
6.58
10.69
13.72
15.73
16.82
17.14
16.89
16.31
15.71
15.30
15.16
15.19
15.18
14.85
14.07
12.81
11.18
9.42
7.74
6.31
5.17
4.29
3.56
2.87
2.16
1.41
0.63
-0.16
-0.96
-1.82
-2.81
-4.01
-5.47
-7.19
-9.16
-11.33
-13.59
-15.73
-17.44
-18.31
-18.00
-16.33
-13.41
-9.61
-5.46
-1.45
2.04
4.81
6.84
8.16
8.91
9.24
9.36
9.50
9.78
10.24
10.73
11.03
10.91
10.21
8.98
7.34
5.50
3.65
1.93
0.36
-1.03
-2.24
-3.27
-4.16
-4.96
-5.75
-6.54
-7.29
-7.95
-8.53
-9.17
-10.08
-11.40
-13.12
-14.97
-16.52
-17.29
-16.98
-15.51
-12.97
-9.58
-5.63
-1.46
2.45
5.55
7.41
7.87
7.21
6.02
4.98
4.55
4.78
5.38
5.90
6.05
5.77
5.23
4.65
4.10
3.51
2.70
1.57
0.14
-1.44
-3.00
-4.48
-5.92
-7.44
-9.10
-10.89
-12.74
-14.55
-16.33
-18.17
-20.25
-22.65
-25.32
-27.96
-30.09
-31.22
-31.02
-29.43
-26.71
-23.32
-19.77
-16.51
-13.81
-11.81
-10.49
-9.76
-9.42
-9.22
-8.90
-8.24
-7.22
-5.92
-4.53
-3.23
-2.06
-0.99
0.03
1.01
1.82
2.33
2.44
2.21
1.79
1.35
0.95
0.51
-0.15
-1.19
-2.69
-4.65
-6.98
-9.57
-12.26
-14.74
-16.60
-17.37
-16.70
-14.56
-11.32
-7.58
-3.99
-1.01
1.18
2.60
3.43
3.78
3.74
3.36
2.77
2.14
1.63
1.31
1.11
0.90
0.48
-0.26
-1.41
-2.94
-4.76
-6.74
-8.70
-10.45
-11.91
-13.06
-14.05
-15.10
-16.43
-18.20
-20.42
-22.92
-25.38
-27.39
-28.51
-28.38
-26.79
-23.81
-19.72
-15.04
-10.32
-6.02
-2.41
0.41
2.50
4.01
5.07
5.83
6.44
7.06
7.79
8.62
9.41
9.86
9.66
8.64
6.87
4.62
2.26
0.07
-1.88
-3.69
-5.55
-7.64
-10.08
-12.84
-15.89
-19.15
-22.51
-25.80
-28.71
-30.85
-31.81
-31.32
-29.25
-25.69
-20.86
-15.06
-8.65
-2.05
4.21
9.59
13.59
15.94
16.73
16.35
15.39
14.36
13.54
12.96
12.42
11.70
10.69
9.42
7.97
6.44
4.80
2.95
0.80
-1.64
-4.32
-7.17
-10.30
-13.96
-18.39
-23.59
-29.14
-34.19
-37.75
-38.97
-37.53
-33.63
-27.83
-20.81
-13.09
-5.06
2.99
10.66
17.45
22.87
26.57
28.59
29.29
29.29
29.20
29.37
29.82
30.25
30.21
29.36
27.57
24.94
21.72
18.23
14.69
11.25
7.96
4.81
1.73
-1.47
-5.03
-9.26
-14.37
-20.30
-26.62
-32.48
-36.86
-38.81
-37.82
-33.94
-27.76
-20.13
-11.88
-3.51
4.72
12.71
20.32
27.24
33.12
37.67
40.84
42.77
43.77
44.09
43.86
43.05
41.60
39.48
36.83
33.85
30.84
27.99
25.39
22.98
20.64
18.23
15.72
13.10
10.42
7.69
4.84
1.79
-1.54
-5.14
-8.97
-12.95
-17.04
-21.18
-25.22
-28.83
-31.51
-32.71
-31.93
-28.93
-23.78
-16.80
-8.45
0.72
10.11
19.11
27.10
33.54
38.08
40.65
41.45
40.92
39.60
37.99
36.54
35.46
34.84
34.54
34.28
33.67
32.35
30.06
26.75
22.63
18.09
13.62
9.68
6.51
4.14
2.42
1.10
-0.07
-1.21
-2.44
-3.88
-5.74
-8.35
-11.98
-16.76
-22.54
-28.88
-35.09
-40.35
-43.85
-44.96
-43.34
-38.99
-32.27
-23.80
-14.38
-4.86
4.01
11.60
17.53
21.64
24.06
25.16
25.44
25.42
25.47
25.71
26.02
26.10
25.66
24.53
22.80
20.71
18.63
16.82
15.37
14.19
13.05
11.70
10.02
8.02
5.84
3.69
1.72
-0.04
-1.68
-3.40
-5.45
-8.06
-11.37
-15.36
-19.79
-24.16
-27.70
-29.57
-29.11
-26.04
-20.67
-13.77
-6.36
0.70
6.92
12.27
16.97
21.26
25.14
28.40
30.70
31.85
31.90
31.17
30.05
28.83
27.53
25.95
23.80
20.90
17.31
13.29
9.20
5.32
1.78
-1.43
-4.42
-7.30
-10.12
-12.93
-15.75
-18.62
-21.48
-24.21
-26.65
-28.71
-30.44
-32.02
-33.71
-35.60
-37.54
-39.10
-39.66
-38.67
-35.78
-30.96
-24.47
-16.75
-8.32
0.29
8.61
16.21
22.80
28.19
32.31
35.10
36.51
36.47
34.98
32.15
28.25
23.69
18.93
14.48
10.78
8.21
6.98
7.11
8.26
9.84
11.04
11.05
9.29
5.59
0.26
-6.04
-12.54
-18.58
-23.79
-28.17
-31.98
-35.63
-39.56
-44.09
-49.42
-55.59
-62.46
-69.64
-76.46
-82.11
-85.75
-86.78
-84.88
-80.04
-72.42
-62.20
-49.62
-35.11
-19.42
-3.71
10.56
22.07
30.00
34.22
35.36
34.46
32.63
30.66
28.89
27.36
26.17
25.60
26.05
27.85
30.97
34.94
39.00
42.40
44.84
46.94
49.85
54.62
61.56
69.85
77.73
83.18
84.70
81.79
75.72
68.50
62.13
57.80
55.52
54.58
54.26
54.27
54.60
56.03
59.06
63.80
70.09
77.83
87.32
99.05
112.96
122.62
121.22
103.64
69.88
25.94
-19.05
-57.06
-83.87
-99.28
-105.91
-106.59
-103.71
-98.82
-93.04
-87.39
-82.70
-79.20
-76.48
-73.78
-69.95
-64.32
-56.89
-48.50
-40.88
-36.21
-36.21
-40.60
-47.24
-51.52
-48.11
-33.36
-7.29
25.66
58.16
81.79
91.77
88.37
76.22
61.40
48.43
38.74
31.13
23.69
15.57
7.83
2.01
-1.77
-5.28
-11.68
-23.39
-40.01
-57.88
-71.77
-77.45
-73.93
-63.71
-51.07
-40.35
-34.03
-32.42
-34.24
-37.45
-39.62
-38.03
-30.29
-15.58
3.68
22.53
35.66
40.36
38.05
33.36
31.29
34.13
40.60
45.05
40.77
23.57
-5.99
-43.05
-81.11
-114.70
-140.92
-154.68
-152.79
-134.80
-103.86
-65.65
-26.22
9.72
39.57
62.52
78.98
89.30
93.77
92.97
88.01
80.60
72.31
64.38
57.75
53.10
50.43
49.46
49.72
50.63
51.69
52.56
53.04
53.61
54.17
53.61
50.05
41.62
27.68
9.64
-9.36
-25.86
-37.96
-46.71
-56.22
-71.89
-97.78
-134.44
-178.09
-221.57
-256.75
-277.05
-279.44
-264.85
-237.39
-202.59
-165.47
-129.31
-95.47
-64.07
-35.00
-8.84
13.15
29.67
40.14
45.25
46.68
46.44
46.17
46.75
48.41
51.06
54.52
58.59
63.06
67.67
72.08
75.91
78.57
79.17
76.57
69.59
57.60
40.97
21.33
1.17
-16.96
-31.33
-41.65
-48.93
-54.88
-60.99
-67.90
-75.22
-81.89
-86.81
-89.43
-89.93
-88.98
-87.30
-85.15
-82.09
-77.25
-69.69
-58.92
-45.14
-29.34
-12.96
2.44
15.58
25.74
32.84
37.28
39.64
40.32
39.42
36.77
32.36
26.60
20.62
16.05
14.54
17.05
23.46
32.58
42.62
51.86
59.19
64.34
67.60
69.54
70.48
70.26
68.26
63.47
54.89
42.00
25.14
5.72
-13.92
-31.13
-43.63
-50.20
-50.96
-47.22
-40.91
-33.91
-27.57
-22.36
-18.01
-13.72
-8.56
-1.77
6.98
17.45
28.87
40.06
49.71
56.73
60.54
61.21
59.42
56.18
52.45
48.91
45.79
43.02
40.36
37.56
34.46
31.01
27.18
23.03
18.60
13.86
8.58
2.21
-5.94
-16.43
-29.28
-43.58
-57.54
-68.87
-75.48
-76.15
-70.94
-61.01
-48.13
-34.02
-19.84
-6.09
7.09
19.59
30.94
40.40
47.14
50.69
51.21
49.53
46.88
44.52
43.34
43.54
44.67
45.73
45.73
44.00
40.55
36.04
31.54
28.12
26.36
26.06
26.40
26.31
24.93
21.91
17.48
12.27
7.11
2.62
-1.01
-4.12
-7.42
-11.69
-17.48
-24.81
-33.05
-40.68
-45.94
-47.36
-44.22
-36.69
-25.53
-11.87
3.17
18.57
34.34
50.48
66.54
81.68
95.00
106.05
114.86
121.52
125.97
129.75
134.08
139.33
144.70
148.75
150.14
148.21
143.15
136.04
131.59
134.11
145.67
165.03
188.54
212.13
232.93
249.69
262.57
276.27
294.83
319.54
348.03
375.67
397.86
411.66
416.01
388.00
315.78
202.48
67.70
-62.93
-170.82
-249.71
-302.47
-335.94
-356.70
-365.19
-360.05
-340.44
-308.92
-270.48
-231.01
-195.72
-168.45
-150.93
-139.78
-130.57
-120.12
-108.17
-96.82
-89.41
-87.39
-90.45
-96.95
-102.94
-105.31
-103.14
-98.00
-92.69
-89.50
-89.06
-90.59
-92.72
-93.50
-92.15
-89.49
-87.62
-88.82
-94.32
-103.69
-115.29
-126.96
-136.69
-143.55
-147.88
-151.02
-154.55
-159.57
-166.25
-173.91
-181.26
-186.64
-188.43
-185.29
-176.53
-162.31
-143.62
-121.95
-98.88
-75.60
-52.62
-29.93
-7.21
15.70
38.59
60.83
81.60
99.98
115.13
126.42
133.45
136.13
134.67
129.63
121.77
112.08
101.59
91.26
81.74
73.26
65.55
58.05
50.17
41.64
32.77
24.25
16.95
11.40
7.55
4.79
2.21
-1.01
-5.42
-11.25
-18.44
-26.55
-34.71
-41.61
-45.77
-46.04
-42.11
-34.84
-25.89
-17.12
-9.75
-3.91
1.23
6.84
13.73
21.95
30.73
38.93
45.48
49.72
51.48
50.97
48.58
44.75
39.99
34.89
30.14
26.36
23.85
22.53
21.90
21.32
20.30
18.75
17.00
15.53
14.67
14.35
14.01
12.97
10.69
7.10
2.57
-2.25
-6.88
-11.23
-15.66
-20.72
-26.82
-33.96
-41.70
-49.33
-56.16
-61.60
-65.19
-66.50
-65.06
-60.52
-52.80
-42.26
-29.65
-15.94
-2.09
11.20
23.48
34.53
44.26
52.53
59.17
64.03
66.98
68.02
67.29
65.05
61.66
57.48
52.89
48.21
43.73
39.66
36.17
33.29
30.93
28.91
27.00
25.00
22.73
20.07
16.88
13.08
8.70
3.92
-0.95
-5.61
-9.86
-13.75
-17.55
-21.60
-26.18
-31.36
-37.07
-43.12
-49.27
-55.17
-60.27
-63.88
-65.25
-63.83
-59.46
-52.40
-43.27
-32.76
-21.51
-10.09
1.01
11.26
20.10
27.07
31.95
34.82
36.01
35.96
35.09
33.69
32.00
30.14
28.21
26.30
24.46
22.71
21.07
19.48
17.75
15.61
12.79
9.25
5.22
1.29
-1.94
-4.09
-5.30
-6.18
-7.56
-10.13
-14.09
-19.12
-24.30
-28.29
-29.48
-26.41
-18.33
-5.78
9.20
23.44
33.60
37.36
34.28
25.88
14.95
4.41
-3.64
-8.30
-9.68
-8.34
-4.89
0.17
6.30
12.80
18.81
23.51
26.39
27.44
27.20
26.54
26.30
26.93
28.34
29.92
30.94
30.91
29.91
28.53
27.61
27.77
28.99
30.66
31.76
31.33
28.89
24.57
18.96
12.85
6.89
1.46
-3.37
-7.74
-11.86
-15.80
-19.59
-23.08
-26.15
-28.79
-31.14
-33.54
-36.44
-40.16
-44.79
-50.01
-55.07
-58.98
-60.72
-59.59
-55.39
-48.53
-39.83
-30.31
-20.77
-11.67
-3.14
4.78
11.99
18.15
22.86
25.89
27.29
27.46
26.93
26.17
25.40
24.67
23.91
23.11
22.33
21.66
21.06
20.38
19.35
17.72
15.41
12.51
9.35
6.34
3.81
1.91
0.55
-0.67
-2.19
-4.42
-7.52
-11.40
-15.71
-20.02
-24.02
-27.59
-30.75
-33.64
-36.41
-39.19
-42.05
-45.05
-48.05
-50.70
-52.40
-52.40
-50.09
-45.19
-38.00
-29.22
-19.83
-10.78
-2.76
3.87
9.01
12.74
15.26
16.80
17.62
17.97
18.08
18.12
18.20
18.31
18.31
18.02
17.26
16.02
14.46
12.87
11.54
10.57
9.82
9.00
7.77
5.91
3.42
0.47
-2.69
-5.82
-8.75
-11.39
-13.72
-15.78
-17.65
-19.44
-21.26
-23.27
-25.60
-28.39
-31.69
-35.41
-39.17
-42.31
-44.05
-43.70
-40.91
-35.79
-28.89
-20.95
-12.68
-4.60
2.99
9.88
15.85
20.63
23.96
25.72
26.05
25.43
24.49
23.86
23.91
24.69
25.89
27.03
27.75
27.92
27.73
27.54
27.65
28.12
28.72
29.04
28.71
27.54
25.60
23.13
20.39
17.56
14.63
11.44
7.73
3.25
-2.20
-8.71
-16.19
-24.33
-32.66
-40.50
-47.13
-51.84
-54.08
-53.57
-50.34
-44.81
-37.62
-29.59
-21.47
-13.91
-7.26
-1.66
2.96
6.73
9.78
12.21
14.05
15.38
16.29
16.81
16.93
16.56
15.58
13.92
11.67
9.01
6.16
3.23
0.18
-3.11
-6.79
-10.80
-14.96
-18.93
-22.43
-25.34
-27.76
-29.97
-32.37
-35.37
-39.31
-44.37
-50.41
-56.90
-62.93
-67.34
-69.11
-67.65
-63.05
-55.96
-47.33
-38.02
-28.58
-19.26
-10.20
-1.67
5.90
12.15
16.96
20.63
23.72
26.75
29.88
32.83
35.02
35.83
35.00
32.74
29.67
26.50
23.79
21.71
20.11
18.63
16.85
14.54
11.74
8.64
5.48
2.34
-0.88
-4.37
-8.48
-13.60
-19.93
-27.26
-34.86
-41.67
-46.56
-48.59
-47.11
-42.22
-34.60
-25.12
-14.46
-2.83
9.66
22.86
36.54
50.51
64.24
76.97
88.10
97.57
106.18
114.86
124.29
134.55
145.20
154.49
159.86
158.63
148.95
130.61
104.69
73.53
39.37
7.41
-16.38
-27.98
-27.69
-21.77
-15.86
-13.73
-16.89
-24.61
-32.92
-37.45
-34.11
-20.31
4.02
36.13
70.30
99.32
116.70
118.69
104.22
74.75
33.36
-16.05
-69.10
-121.71
-170.36
-212.10
-244.59
-266.41
-276.78
-275.27
-261.84
-237.35
-204.36
-167.20
-131.10
-100.85
-79.75
-69.10
-68.57
-76.89
-92.46
-113.33
-136.79
-158.99
-175.39
-181.90
-176.20
-158.44
-130.96
-97.23
-60.81
-24.67
9.00
38.47
62.25
79.11
88.27
89.81
84.77
75.08
63.23
51.79
42.83
37.57
36.05
37.23
39.47
41.13
41.24
39.81
37.83
36.79
38.24
43.22
51.72
62.58
73.66
82.53
87.39
87.81
84.94
81.05
78.61
79.59
84.90
94.21
106.04
117.83
126.43
128.59
121.93
105.77
81.55
52.48
22.56
-4.68
-26.91
-43.05
-52.77
-55.95
-52.65
-43.40
-29.54
-13.21
3.28
18.24
31.03
41.94
51.60
60.32
67.81
73.43
76.70
77.76
77.39
76.54
75.82
75.17
74.03
71.46
66.48
58.37
47.02
33.11
18.03
3.61
-8.40
-16.40
-19.78
-19.08
-15.78
-11.76
-8.69
-7.70
-9.29
-13.40
-18.58
-23.30
-26.46
-27.74
-27.38
-25.69
-22.65
-17.87
-10.77
0.50
17.02
38.33
62.35
86.34
108.02
126.30
141.16
153.14
164.71
177.65
192.20
206.82
218.92
225.99
226.24
218.93
193.21
144.75
77.45
3.11
-64.81
-118.08
-155.31
-179.44
-194.26
-202.51
-203.76
-197.68
-185.58
-170.73
-157.31
-148.46
-145.24
-146.60
-150.30
-152.55
-150.66
-143.85
-133.15
-120.57
-107.90
-96.03
-84.99
-74.38
-62.94
-50.02
-36.04
-22.42
-10.86
-2.43
2.87
5.78
7.20
8.11
8.99
9.94
11.07
12.76
15.68
20.30
26.38
32.79
38.11
41.12
41.34
39.19
35.66
31.80
28.35
25.44
22.75
19.71
15.66
10.06
2.61
-6.67
-17.24
-28.11
-37.92
-45.32
-49.33
-49.55
-46.23
-40.04
-31.83
-22.38
-12.37
-2.45
6.65
14.16
19.42
22.18
22.94
22.95
23.95
27.49
34.30
43.84
54.46
63.87
69.91
71.55
69.34
65.30
62.21
62.49
67.32
76.35
87.64
98.37
105.82
108.22
105.06
96.91
85.00
70.83
56.05
42.15
29.97
19.89
12.00
6.27
2.92
2.65
5.02
10.07
17.31
24.48
28.06
24.69
12.60
-7.68
-33.64
-61.75
-88.33
-110.49
-127.23
-139.02
-147.17
-153.15
-157.94
-161.62
-163.57
-164.68
-163.96
-161.37
-157.60
-153.72
-150.92
-150.25
-152.49
-157.92
-165.82
-174.31
-181.20
-184.05
-180.97
-171.19
-155.13
-134.03
-109.28
-81.95
-52.25
-21.44
9.03
37.54
62.42
82.09
95.45
102.07
102.52
98.37
91.44
83.65
76.51
70.88
67.08
65.10
64.80
65.89
67.92
70.00
71.12
70.31
67.06
61.44
54.13
46.08
38.07
30.37
22.62
14.19
4.62
-5.91
-16.29
-24.72
-29.04
-27.48
-19.26
-4.98
13.40
32.86
50.07
62.18
67.59
66.36
59.91
50.52
40.43
31.28
23.88
18.29
14.17
11.05
8.45
5.82
2.56
-1.83
-7.57
-14.29
-21.02
-26.37
-28.95
-27.79
-22.77
-14.60
-4.65
5.58
14.95
22.96
29.67
35.42
40.48
44.80
48.10
50.15
50.94
50.81
50.35
50.12
50.46
51.42
52.80
54.30
55.58
56.39
56.54
55.96
54.67
52.74
50.32
47.51
44.37
40.95
37.25
33.41
29.60
25.96
22.55
19.24
15.84
12.24
8.45
4.65
1.03
-2.33
-5.57
-8.95
-12.78
-17.13
-21.75
-26.06
-29.31
-30.71
-29.72
-26.12
-20.20
-12.61
-4.22
4.16
11.88
18.52
24.17
29.08
33.59
37.81
41.50
44.27
45.81
46.09
45.36
44.63
45.08
47.64
52.34
58.06
63.02
65.66
65.36
62.54
59.27
57.84
59.53
63.46
66.42
64.38
54.46
36.31
12.26
-12.42
-31.57
-39.50
-32.07
-7.22
34.93
91.86
157.90
216.52
248.87
240.26
188.89
108.26
20.04
-56.69
-112.10
-146.12
-164.57
-173.31
-175.94
-173.65
-167.13
-158.02
-148.61
-140.09
-131.71
-121.16
-105.18
-81.53
-50.36
-14.73
20.77
50.16
68.49
73.82
67.85
55.44
42.38
32.67
26.77
21.53
12.10
-4.77
-28.59
-55.02
-76.77
-87.23
-83.90
-68.91
-46.91
-22.71
0.47
20.54
37.32
49.58
55.19
52.47
41.95
26.91
12.66
4.68
6.83
19.93
41.49
67.00
91.78
112.46
127.40
137.01
141.13
139.62
132.55
120.34
104.01
85.26
66.33
49.90
38.91
36.07
43.41
60.85
85.37
111.20
131.26
139.58
133.33
113.67
84.75
51.87
19.20
-11.35
-39.78
-66.46
-90.62
-109.68
-119.96
-118.30
-103.44
-76.98
-43.16
-7.51
24.63
49.54
65.62
73.13
73.23
67.20
55.91
39.88
19.75
-3.39
-27.82
-51.54
-72.55
-89.23
-100.54
-106.09
-106.21
-101.76
-93.91
-83.56
-71.07
-56.36
-39.60
-21.97
-6.10
4.66
7.47
1.52
-11.47
-27.89
-44.03
-57.85
-69.96
-83.19
-100.88
-124.72
-153.30
-181.82
-203.29
-210.74
-199.64
-169.59
-124.42
-70.95
-16.60
32.71
73.73
105.59
128.62
143.19
149.27
147.06
137.74
123.78
108.45
94.61
83.50
74.31
64.62
51.30
31.49
3.39
-33.08
-75.34
-117.70
-151.85
-168.43
-159.66
-121.87
-57.12
26.79
117.87
202.64
268.95
308.41
317.82
299.39
259.59
207.16
150.53
95.76
45.58
-0.22
-43.15
-84.23
-122.97
-157.42
-185.37
-205.57
-218.66
-227.08
-234.25
-243.26
-256.00
-273.34
-295.35
-321.40
-349.52
-375.56
-392.90
-393.91
-372.52
-326.89
-260.57
-181.28
-97.69
-16.12
61.30
135.86
209.71
282.90
351.99
410.76
452.66
473.46
472.83
454.06
422.51
383.66
341.52
298.58
256.42
216.66
181.22
151.81
128.91
111.17
95.62
78.77
58.19
33.37
5.89
-21.38
-45.64
-65.35
-80.75
-93.79
-107.58
-125.65
-150.90
-184.20
-223.27
-262.25
-292.98
-307.59
-301.89
-277.48
-241.56
-204.29
-174.86
-158.43
-155.23
-162.14
-175.38
-192.58
-213.11
-237.01
-263.59
-290.84
-315.87
-335.67
-347.69
-349.54
-338.80
-312.81
-269.68
-209.91
-137.94
-62.54
4.85
53.19
75.21
69.70
41.52
-0.41
-46.29
-88.33
-122.18
-146.80
-162.94
-171.49
-172.53
-165.37
-149.37
-124.67
-92.54
-55.12
-14.91
25.74
64.83
100.88
132.99
160.84
184.71
205.20
222.83
237.77
249.87
258.78
264.09
265.06
260.23
247.36
224.33
190.72
149.51
107.44
73.23
54.36
53.82
68.78
92.15
115.81
133.87
143.86
145.91
140.78
128.58
108.91
81.97
49.60
15.24
-17.07
-44.15
-64.62
-78.89
-88.41
-94.59
-98.07
-98.53
-95.04
-86.79
-73.84
-57.55
-40.63
-26.46
-18.13
-17.45
-24.50
-37.73
-54.71
-72.40
-87.70
-97.88
-101.28
-97.70
-88.46
-75.91
-62.60
-50.78
-41.63
-35.14
-30.20
-25.00
-17.51
-6.09
9.84
29.50
50.36
69.58
84.98
95.49
100.77
100.70
95.12
84.06
68.32
48.35
26.12
4.78
-12.34
-23.28
-28.13
-28.76
-28.07
-29.33
-38.80
-61.38
-99.36
-152.05
-216.28
-286.86
-356.87
-418.36
-464.10
-494.58
-512.63
-521.73
-524.66
-523.42
-519.27
-512.27
-501.36
-485.09
-468.77
-456.03
-446.60
-436.51
-421.20
-398.57
-369.78
-338.19
-269.87
-154.09
-4.18
149.17
277.87
369.70
426.38
455.90
466.98
466.33
451.93
422.75
381.49
334.46
288.61
248.71
216.68
192.01
174.43
158.36
140.11
119.59
99.91
84.72
75.81
72.62
73.65
76.57
75.86
67.92
52.55
32.90
13.91
0.71
-6.77
-7.61
-1.42
10.10
25.47
44.26
67.10
94.87
127.88
165.79
208.76
256.83
308.97
363.18
416.11
462.85
497.56
514.95
511.83
488.75
449.17
398.35
342.03
285.53
233.36
189.25
156.16
136.02
129.48
134.81
147.87
162.98
174.88
179.96
177.09
167.64
154.43
140.43
127.07
113.78
98.40
79.50
56.89
31.94
7.06
-15.01
-31.86
-42.09
-45.73
-44.29
-39.29
-33.28
-29.82
-32.80
-45.01
-66.60
-94.67
-124.09
-148.92
-162.31
-159.40
-138.59
-101.77
-53.56
0.33
54.12
102.74
131.49
130.34
97.92
42.94
-20.75
-81.42
-132.68
-173.06
-203.91
-227.39
-243.80
-252.92
-254.75
-249.90
-239.89
-226.38
-211.06
-195.67
-181.38
-167.60
-153.12
-136.79
-117.60
-95.28
-69.69
-40.38
-8.52
25.45
61.40
97.73
130.94
157.17
173.05
177.49
172.21
161.06
148.87
139.93
136.56
139.01
146.98
159.08
173.03
185.43
192.50
191.07
179.52
158.14
123.05
75.80
22.63
-27.44
-67.08
-93.36
-107.54
-112.76
-112.04
-107.18
-98.19
-85.56
-71.21
-58.74
-51.71
-53.06
-63.98
-83.32
-107.41
-129.82
-143.75
-142.56
-124.74
-94.93
-61.91
-34.66
-18.76
-14.68
-18.20
-23.87
-27.92
-29.84
-31.22
-33.78
-37.78
-41.85
-43.92
-41.99
-35.26
-24.37
-11.29
1.41
11.33
16.78
17.19
13.03
5.46
-4.17
-14.64
-24.86
-33.17
-37.52
-36.30
-29.54
-19.74
-11.36
-8.99
-15.16
-28.97
-45.88
-59.88
-66.43
-64.44
-56.17
-45.19
-34.92
-26.74
-19.69
-10.60
4.01
26.52
57.52
95.88
139.14
183.61
224.45
251.41
254.91
230.41
182.05
121.60
63.15
17.23
-12.14
-26.84
-31.96
-32.29
-30.70
-28.05
-24.33
-19.73
-14.94
-10.73
-7.67
-6.29
-6.45
-8.39
-12.97
-21.85
-36.87
-58.52
-84.51
-109.65
-125.60
-126.00
-109.52
-80.51
-47.33
-18.73
-0.34
6.92
5.87
0.74
-5.27
-10.57
-14.64
-17.12
-17.36
-14.65
-8.86
-0.51
9.52
20.31
31.33
42.46
53.24
62.32
67.51
66.29
56.54
37.67
11.06
-19.86
-50.51
-76.31
-94.14
-103.23
-105.17
-103.73
-103.41
-108.23
-120.26
-138.58
-159.07
-175.36
-181.08
-170.67
-144.56
-109.36
-75.49
-52.33
-43.30
-43.86
-43.96
-33.64
-8.85
25.68
59.09
79.98
82.18
67.50
44.39
24.12
16.44
26.75
54.62
94.84
138.66
175.83
196.95
196.04
172.68
132.52
85.99
44.98
