,BVP,time
0,-44.92,2021-12-17 17:32:58.171875
1,-21.01,2021-12-17 17:32:58.187500
2,4.38,2021-12-17 17:32:58.203125
3,30.08,2021-12-17 17:32:58.218750
4,55.45,2021-12-17 17:32:58.234375
5,79.66,2021-12-17 17:32:58.250000
6,101.32,2021-12-17 17:32:58.265625
7,119.04,2021-12-17 17:32:58.281250
8,132.08,2021-12-17 17:32:58.296875
9,140.8,2021-12-17 17:32:58.312500
10,146.24,2021-12-17 17:32:58.328125
11,149.5,2021-12-17 17:32:58.343750
12,151.09,2021-12-17 17:32:58.359375
13,150.43,2021-12-17 17:32:58.375000
14,146.22,2021-12-17 17:32:58.390625
15,136.76,2021-12-17 17:32:58.406250
16,120.77,2021-12-17 17:32:58.421875
17,98.08,2021-12-17 17:32:58.437500
18,70.21,2021-12-17 17:32:58.453125
19,40.24,2021-12-17 17:32:58.468750
20,11.83,2021-12-17 17:32:58.484375
21,-12.2,2021-12-17 17:32:58.500000
22,-31.26,2021-12-17 17:32:58.515625
23,-47.24,2021-12-17 17:32:58.531250
24,-63.62,2021-12-17 17:32:58.546875
25,-83.5,2021-12-17 17:32:58.562500
26,-107.97,2021-12-17 17:32:58.578125
27,-135.53,2021-12-17 17:32:58.593750
28,-162.93,2021-12-17 17:32:58.609375
29,-186.64,2021-12-17 17:32:58.625000
30,-204.18,2021-12-17 17:32:58.640625
31,-214.36,2021-12-17 17:32:58.656250
32,-216.8,2021-12-17 17:32:58.671875
33,-211.41,2021-12-17 17:32:58.687500
34,-198.2,2021-12-17 17:32:58.703125
35,-177.74,2021-12-17 17:32:58.718750
36,-151.73,2021-12-17 17:32:58.734375
37,-123.06,2021-12-17 17:32:58.750000
38,-95.19,2021-12-17 17:32:58.765625
39,-71.16,2021-12-17 17:32:58.781250
40,-52.68,2021-12-17 17:32:58.796875
41,-39.78,2021-12-17 17:32:58.812500
42,-31.09,2021-12-17 17:32:58.828125
43,-24.4,2021-12-17 17:32:58.843750
44,-17.36,2021-12-17 17:32:58.859375
45,-8.07,2021-12-17 17:32:58.875000
46,4.55,2021-12-17 17:32:58.890625
47,20.55,2021-12-17 17:32:58.906250
48,38.99,2021-12-17 17:32:58.921875
49,58.26,2021-12-17 17:32:58.937500
50,76.36,2021-12-17 17:32:58.953125
51,91.49,2021-12-17 17:32:58.968750
52,102.25,2021-12-17 17:32:58.984375
53,107.79,2021-12-17 17:32:59.000000
54,107.83,2021-12-17 17:32:59.015625
55,102.6,2021-12-17 17:32:59.031250
56,92.79,2021-12-17 17:32:59.046875
57,79.49,2021-12-17 17:32:59.062500
58,64.1,2021-12-17 17:32:59.078125
59,47.96,2021-12-17 17:32:59.093750
60,32.12,2021-12-17 17:32:59.109375
61,17.3,2021-12-17 17:32:59.125000
62,3.97,2021-12-17 17:32:59.140625
63,-7.35,2021-12-17 17:32:59.156250
64,-15.88,2021-12-17 17:32:59.171875
65,-20.75,2021-12-17 17:32:59.187500
66,-21.4,2021-12-17 17:32:59.203125
67,-17.88,2021-12-17 17:32:59.218750
68,-11.09,2021-12-17 17:32:59.234375
69,-2.38,2021-12-17 17:32:59.250000
70,7.13,2021-12-17 17:32:59.265625
71,17.19,2021-12-17 17:32:59.281250
72,28.74,2021-12-17 17:32:59.296875
73,43.69,2021-12-17 17:32:59.312500
74,64.24,2021-12-17 17:32:59.328125
75,92.04,2021-12-17 17:32:59.343750
76,127.5,2021-12-17 17:32:59.359375
77,169.58,2021-12-17 17:32:59.375000
78,215.83,2021-12-17 17:32:59.390625
79,262.88,2021-12-17 17:32:59.406250
80,307.02,2021-12-17 17:32:59.421875
81,344.82,2021-12-17 17:32:59.437500
82,373.57,2021-12-17 17:32:59.453125
83,391.71,2021-12-17 17:32:59.468750
84,399.01,2021-12-17 17:32:59.484375
85,396.47,2021-12-17 17:32:59.500000
86,385.96,2021-12-17 17:32:59.515625
87,369.51,2021-12-17 17:32:59.531250
88,348.5,2021-12-17 17:32:59.546875
89,323.02,2021-12-17 17:32:59.562500
90,291.93,2021-12-17 17:32:59.578125
91,253.39,2021-12-17 17:32:59.593750
92,206.02,2021-12-17 17:32:59.609375
93,150.1,2021-12-17 17:32:59.625000
94,88.44,2021-12-17 17:32:59.640625
95,26.17,2021-12-17 17:32:59.656250
96,-30.34,2021-12-17 17:32:59.671875
97,-75.05,2021-12-17 17:32:59.687500
98,-103.92,2021-12-17 17:32:59.703125
99,-115.7,2021-12-17 17:32:59.718750
100,-112.0,2021-12-17 17:32:59.734375
101,-96.61,2021-12-17 17:32:59.750000
102,-74.78,2021-12-17 17:32:59.765625
103,-52.34,2021-12-17 17:32:59.781250
104,-34.8,2021-12-17 17:32:59.796875
105,-26.11,2021-12-17 17:32:59.812500
106,-27.09,2021-12-17 17:32:59.828125
107,-34.41,2021-12-17 17:32:59.843750
108,-41.09,2021-12-17 17:32:59.859375
109,-38.85,2021-12-17 17:32:59.875000
110,-21.89,2021-12-17 17:32:59.890625
111,9.89,2021-12-17 17:32:59.906250
112,49.88,2021-12-17 17:32:59.921875
113,86.86,2021-12-17 17:32:59.937500
114,109.44,2021-12-17 17:32:59.953125
115,110.63,2021-12-17 17:32:59.968750
116,90.35,2021-12-17 17:32:59.984375
117,54.75,2021-12-17 17:33:00.000000
118,12.86,2021-12-17 17:33:00.015625
119,-27.39,2021-12-17 17:33:00.031250
120,-61.77,2021-12-17 17:33:00.046875
121,-89.89,2021-12-17 17:33:00.062500
122,-113.53,2021-12-17 17:33:00.078125
123,-134.25,2021-12-17 17:33:00.093750
124,-152.08,2021-12-17 17:33:00.109375
125,-165.68,2021-12-17 17:33:00.125000
126,-173.66,2021-12-17 17:33:00.140625
127,-175.93,2021-12-17 17:33:00.156250
128,-174.49,2021-12-17 17:33:00.171875
129,-172.57,2021-12-17 17:33:00.187500
130,-173.25,2021-12-17 17:33:00.203125
131,-177.9,2021-12-17 17:33:00.218750
132,-185.55,2021-12-17 17:33:00.234375
133,-193.44,2021-12-17 17:33:00.250000
134,-198.43,2021-12-17 17:33:00.265625
135,-198.46,2021-12-17 17:33:00.281250
136,-193.25,2021-12-17 17:33:00.296875
137,-184.09,2021-12-17 17:33:00.312500
138,-172.9,2021-12-17 17:33:00.328125
139,-161.23,2021-12-17 17:33:00.343750
140,-149.64,2021-12-17 17:33:00.359375
141,-137.69,2021-12-17 17:33:00.375000
142,-124.43,2021-12-17 17:33:00.390625
143,-109.05,2021-12-17 17:33:00.406250
144,-91.24,2021-12-17 17:33:00.421875
145,-71.05,2021-12-17 17:33:00.437500
146,-48.72,2021-12-17 17:33:00.453125
147,-24.18,2021-12-17 17:33:00.468750
148,3.28,2021-12-17 17:33:00.484375
149,34.9,2021-12-17 17:33:00.500000
150,71.59,2021-12-17 17:33:00.515625
151,112.72,2021-12-17 17:33:00.531250
152,155.1,2021-12-17 17:33:00.546875
153,192.99,2021-12-17 17:33:00.562500
154,219.49,2021-12-17 17:33:00.578125
155,229.02,2021-12-17 17:33:00.593750
156,219.95,2021-12-17 17:33:00.609375
157,195.79,2021-12-17 17:33:00.625000
158,164.16,2021-12-17 17:33:00.640625
159,133.88,2021-12-17 17:33:00.656250
160,111.41,2021-12-17 17:33:00.671875
161,98.62,2021-12-17 17:33:00.687500
162,92.69,2021-12-17 17:33:00.703125
163,88.07,2021-12-17 17:33:00.718750
164,79.28,2021-12-17 17:33:00.734375
165,63.05,2021-12-17 17:33:00.750000
166,38.92,2021-12-17 17:33:00.765625
167,8.58,2021-12-17 17:33:00.781250
168,-25.6,2021-12-17 17:33:00.796875
169,-61.76,2021-12-17 17:33:00.812500
170,-99.09,2021-12-17 17:33:00.828125
171,-137.51,2021-12-17 17:33:00.843750
172,-176.99,2021-12-17 17:33:00.859375
173,-216.49,2021-12-17 17:33:00.875000
174,-253.28,2021-12-17 17:33:00.890625
175,-283.07,2021-12-17 17:33:00.906250
176,-301.25,2021-12-17 17:33:00.921875
177,-304.46,2021-12-17 17:33:00.937500
178,-292.03,2021-12-17 17:33:00.953125
179,-266.48,2021-12-17 17:33:00.968750
180,-232.74,2021-12-17 17:33:00.984375
181,-196.61,2021-12-17 17:33:01.000000
182,-163.39,2021-12-17 17:33:01.015625
183,-137.14,2021-12-17 17:33:01.031250
184,-120.42,2021-12-17 17:33:01.046875
185,-114.28,2021-12-17 17:33:01.062500
186,-118.01,2021-12-17 17:33:01.078125
187,-129.0,2021-12-17 17:33:01.093750
188,-142.87,2021-12-17 17:33:01.109375
189,-154.36,2021-12-17 17:33:01.125000
190,-158.73,2021-12-17 17:33:01.140625
191,-153.15,2021-12-17 17:33:01.156250
192,-137.21,2021-12-17 17:33:01.171875
193,-112.57,2021-12-17 17:33:01.187500
194,-82.08,2021-12-17 17:33:01.203125
195,-48.99,2021-12-17 17:33:01.218750
196,-16.82,2021-12-17 17:33:01.234375
197,10.75,2021-12-17 17:33:01.250000
198,30.3,2021-12-17 17:33:01.265625
199,39.38,2021-12-17 17:33:01.281250
200,37.63,2021-12-17 17:33:01.296875
201,27.18,2021-12-17 17:33:01.312500
202,12.09,2021-12-17 17:33:01.328125
203,-3.03,2021-12-17 17:33:01.343750
204,-14.48,2021-12-17 17:33:01.359375
205,-20.26,2021-12-17 17:33:01.375000
206,-19.74,2021-12-17 17:33:01.390625
207,-12.34,2021-12-17 17:33:01.406250
208,3.26,2021-12-17 17:33:01.421875
209,28.24,2021-12-17 17:33:01.437500
210,61.7,2021-12-17 17:33:01.453125
211,98.75,2021-12-17 17:33:01.468750
212,130.79,2021-12-17 17:33:01.484375
213,148.57,2021-12-17 17:33:01.500000
214,146.72,2021-12-17 17:33:01.515625
215,126.87,2021-12-17 17:33:01.531250
216,97.47,2021-12-17 17:33:01.546875
217,69.81,2021-12-17 17:33:01.562500
218,52.55,2021-12-17 17:33:01.578125
219,47.84,2021-12-17 17:33:01.593750
220,51.36,2021-12-17 17:33:01.609375
221,55.77,2021-12-17 17:33:01.625000
222,55.42,2021-12-17 17:33:01.640625
223,48.97,2021-12-17 17:33:01.656250
224,38.97,2021-12-17 17:33:01.671875
225,29.12,2021-12-17 17:33:01.687500
226,21.41,2021-12-17 17:33:01.703125
227,15.38,2021-12-17 17:33:01.718750
228,9.31,2021-12-17 17:33:01.734375
229,2.45,2021-12-17 17:33:01.750000
230,-3.69,2021-12-17 17:33:01.765625
231,-5.8,2021-12-17 17:33:01.781250
232,-0.53,2021-12-17 17:33:01.796875
233,13.44,2021-12-17 17:33:01.812500
234,34.16,2021-12-17 17:33:01.828125
235,56.69,2021-12-17 17:33:01.843750
236,74.88,2021-12-17 17:33:01.859375
237,83.78,2021-12-17 17:33:01.875000
238,81.4,2021-12-17 17:33:01.890625
239,69.4,2021-12-17 17:33:01.906250
240,52.09,2021-12-17 17:33:01.921875
241,34.45,2021-12-17 17:33:01.937500
242,20.18,2021-12-17 17:33:01.953125
243,10.5,2021-12-17 17:33:01.968750
244,4.38,2021-12-17 17:33:01.984375
245,-0.25,2021-12-17 17:33:02.000000
246,-5.07,2021-12-17 17:33:02.015625
247,-10.53,2021-12-17 17:33:02.031250
248,-15.69,2021-12-17 17:33:02.046875
249,-19.04,2021-12-17 17:33:02.062500
250,-19.36,2021-12-17 17:33:02.078125
251,-16.39,2021-12-17 17:33:02.093750
252,-10.99,2021-12-17 17:33:02.109375
253,-4.81,2021-12-17 17:33:02.125000
254,0.4,2021-12-17 17:33:02.140625
255,3.42,2021-12-17 17:33:02.156250
256,3.79,2021-12-17 17:33:02.171875
257,2.0,2021-12-17 17:33:02.187500
258,-0.9,2021-12-17 17:33:02.203125
259,-3.65,2021-12-17 17:33:02.218750
260,-5.16,2021-12-17 17:33:02.234375
261,-4.89,2021-12-17 17:33:02.250000
262,-2.93,2021-12-17 17:33:02.265625
263,0.23,2021-12-17 17:33:02.281250
264,3.89,2021-12-17 17:33:02.296875
265,7.46,2021-12-17 17:33:02.312500
266,10.77,2021-12-17 17:33:02.328125
267,14.07,2021-12-17 17:33:02.343750
268,17.91,2021-12-17 17:33:02.359375
269,22.89,2021-12-17 17:33:02.375000
270,29.26,2021-12-17 17:33:02.390625
271,36.71,2021-12-17 17:33:02.406250
272,44.1,2021-12-17 17:33:02.421875
273,49.79,2021-12-17 17:33:02.437500
274,51.76,2021-12-17 17:33:02.453125
275,47.92,2021-12-17 17:33:02.468750
276,36.34,2021-12-17 17:33:02.484375
277,15.55,2021-12-17 17:33:02.500000
278,-14.57,2021-12-17 17:33:02.515625
279,-52.29,2021-12-17 17:33:02.531250
280,-93.61,2021-12-17 17:33:02.546875
281,-132.98,2021-12-17 17:33:02.562500
282,-164.79,2021-12-17 17:33:02.578125
283,-184.94,2021-12-17 17:33:02.593750
284,-191.83,2021-12-17 17:33:02.609375
285,-186.18,2021-12-17 17:33:02.625000
286,-170.02,2021-12-17 17:33:02.640625
287,-145.66,2021-12-17 17:33:02.656250
288,-115.54,2021-12-17 17:33:02.671875
289,-82.49,2021-12-17 17:33:02.687500
290,-50.25,2021-12-17 17:33:02.703125
291,-23.46,2021-12-17 17:33:02.718750
292,-6.87,2021-12-17 17:33:02.734375
293,-3.82,2021-12-17 17:33:02.750000
294,-15.22,2021-12-17 17:33:02.765625
295,-39.04,2021-12-17 17:33:02.781250
296,-70.6,2021-12-17 17:33:02.796875
297,-103.55,2021-12-17 17:33:02.812500
298,-130.93,2021-12-17 17:33:02.828125
299,-146.16,2021-12-17 17:33:02.843750
300,-144.53,2021-12-17 17:33:02.859375
301,-124.38,2021-12-17 17:33:02.875000
302,-87.72,2021-12-17 17:33:02.890625
303,-39.77,2021-12-17 17:33:02.906250
304,12.58,2021-12-17 17:33:02.921875
305,63.06,2021-12-17 17:33:02.937500
306,107.75,2021-12-17 17:33:02.953125
307,145.8,2021-12-17 17:33:02.968750
308,179.18,2021-12-17 17:33:02.984375
309,211.12,2021-12-17 17:33:03.000000
310,244.27,2021-12-17 17:33:03.015625
311,278.96,2021-12-17 17:33:03.031250
312,312.06,2021-12-17 17:33:03.046875
313,337.09,2021-12-17 17:33:03.062500
314,346.02,2021-12-17 17:33:03.078125
315,332.35,2021-12-17 17:33:03.093750
316,294.46,2021-12-17 17:33:03.109375
317,237.48,2021-12-17 17:33:03.125000
318,172.57,2021-12-17 17:33:03.140625
319,113.47,2021-12-17 17:33:03.156250
320,71.67,2021-12-17 17:33:03.171875
321,52.37,2021-12-17 17:33:03.187500
322,53.26,2021-12-17 17:33:03.203125
323,66.41,2021-12-17 17:33:03.218750
324,82.03,2021-12-17 17:33:03.234375
325,92.22,2021-12-17 17:33:03.250000
326,93.0,2021-12-17 17:33:03.265625
327,84.02,2021-12-17 17:33:03.281250
328,66.94,2021-12-17 17:33:03.296875
329,43.8,2021-12-17 17:33:03.312500
330,16.25,2021-12-17 17:33:03.328125
331,-14.1,2021-12-17 17:33:03.343750
332,-45.0,2021-12-17 17:33:03.359375
333,-73.34,2021-12-17 17:33:03.375000
334,-95.67,2021-12-17 17:33:03.390625
335,-109.47,2021-12-17 17:33:03.406250
336,-114.12,2021-12-17 17:33:03.421875
337,-111.21,2021-12-17 17:33:03.437500
338,-103.95,2021-12-17 17:33:03.453125
339,-96.01,2021-12-17 17:33:03.468750
340,-90.27,2021-12-17 17:33:03.484375
341,-87.89,2021-12-17 17:33:03.500000
342,-88.29,2021-12-17 17:33:03.515625
343,-89.64,2021-12-17 17:33:03.531250
344,-89.93,2021-12-17 17:33:03.546875
345,-87.8,2021-12-17 17:33:03.562500
346,-83.2,2021-12-17 17:33:03.578125
347,-77.27,2021-12-17 17:33:03.593750
348,-71.85,2021-12-17 17:33:03.609375
349,-68.74,2021-12-17 17:33:03.625000
350,-68.93,2021-12-17 17:33:03.640625
351,-72.35,2021-12-17 17:33:03.656250
352,-77.97,2021-12-17 17:33:03.671875
353,-84.36,2021-12-17 17:33:03.687500
354,-90.15,2021-12-17 17:33:03.703125
355,-94.53,2021-12-17 17:33:03.718750
356,-97.25,2021-12-17 17:33:03.734375
357,-98.62,2021-12-17 17:33:03.750000
358,-99.17,2021-12-17 17:33:03.765625
359,-99.45,2021-12-17 17:33:03.781250
360,-99.91,2021-12-17 17:33:03.796875
361,-100.81,2021-12-17 17:33:03.812500
362,-102.31,2021-12-17 17:33:03.828125
363,-104.27,2021-12-17 17:33:03.843750
364,-106.06,2021-12-17 17:33:03.859375
365,-106.22,2021-12-17 17:33:03.875000
366,-102.4,2021-12-17 17:33:03.890625
367,-91.77,2021-12-17 17:33:03.906250
368,-71.86,2021-12-17 17:33:03.921875
369,-41.7,2021-12-17 17:33:03.937500
370,-2.67,2021-12-17 17:33:03.953125
371,41.42,2021-12-17 17:33:03.968750
372,85.12,2021-12-17 17:33:03.984375
373,122.78,2021-12-17 17:33:04.000000
374,150.0,2021-12-17 17:33:04.015625
375,164.53,2021-12-17 17:33:04.031250
376,166.44,2021-12-17 17:33:04.046875
377,157.63,2021-12-17 17:33:04.062500
378,141.09,2021-12-17 17:33:04.078125
379,120.22,2021-12-17 17:33:04.093750
380,98.27,2021-12-17 17:33:04.109375
381,78.01,2021-12-17 17:33:04.125000
382,61.38,2021-12-17 17:33:04.140625
383,49.38,2021-12-17 17:33:04.156250
384,41.95,2021-12-17 17:33:04.171875
385,38.15,2021-12-17 17:33:04.187500
386,36.62,2021-12-17 17:33:04.203125
387,35.88,2021-12-17 17:33:04.218750
388,34.73,2021-12-17 17:33:04.234375
389,32.44,2021-12-17 17:33:04.250000
390,28.88,2021-12-17 17:33:04.265625
391,24.34,2021-12-17 17:33:04.281250
392,19.49,2021-12-17 17:33:04.296875
393,15.09,2021-12-17 17:33:04.312500
394,11.7,2021-12-17 17:33:04.328125
395,9.54,2021-12-17 17:33:04.343750
396,8.39,2021-12-17 17:33:04.359375
397,7.83,2021-12-17 17:33:04.375000
398,7.38,2021-12-17 17:33:04.390625
399,6.81,2021-12-17 17:33:04.406250
400,6.12,2021-12-17 17:33:04.421875
401,5.51,2021-12-17 17:33:04.437500
402,5.21,2021-12-17 17:33:04.453125
403,5.29,2021-12-17 17:33:04.468750
404,5.6,2021-12-17 17:33:04.484375
405,5.77,2021-12-17 17:33:04.500000
406,5.42,2021-12-17 17:33:04.515625
407,4.26,2021-12-17 17:33:04.531250
408,2.19,2021-12-17 17:33:04.546875
409,-0.68,2021-12-17 17:33:04.562500
410,-4.1,2021-12-17 17:33:04.578125
411,-7.83,2021-12-17 17:33:04.593750
412,-11.63,2021-12-17 17:33:04.609375
413,-15.3,2021-12-17 17:33:04.625000
414,-18.6,2021-12-17 17:33:04.640625
415,-21.16,2021-12-17 17:33:04.656250
416,-22.62,2021-12-17 17:33:04.671875
417,-22.73,2021-12-17 17:33:04.687500
418,-21.52,2021-12-17 17:33:04.703125
419,-19.31,2021-12-17 17:33:04.718750
420,-16.66,2021-12-17 17:33:04.734375
421,-14.09,2021-12-17 17:33:04.750000
422,-11.89,2021-12-17 17:33:04.765625
423,-10.09,2021-12-17 17:33:04.781250
424,-8.49,2021-12-17 17:33:04.796875
425,-6.87,2021-12-17 17:33:04.812500
426,-5.13,2021-12-17 17:33:04.828125
427,-3.42,2021-12-17 17:33:04.843750
428,-1.96,2021-12-17 17:33:04.859375
429,-0.97,2021-12-17 17:33:04.875000
430,-0.51,2021-12-17 17:33:04.890625
431,-0.5,2021-12-17 17:33:04.906250
432,-0.79,2021-12-17 17:33:04.921875
433,-1.25,2021-12-17 17:33:04.937500
434,-1.82,2021-12-17 17:33:04.953125
435,-2.43,2021-12-17 17:33:04.968750
436,-2.97,2021-12-17 17:33:04.984375
437,-3.24,2021-12-17 17:33:05.000000
438,-2.93,2021-12-17 17:33:05.015625
439,-1.8,2021-12-17 17:33:05.031250
440,0.23,2021-12-17 17:33:05.046875
441,2.97,2021-12-17 17:33:05.062500
442,6.03,2021-12-17 17:33:05.078125
443,8.86,2021-12-17 17:33:05.093750
444,10.99,2021-12-17 17:33:05.109375
445,12.09,2021-12-17 17:33:05.125000
446,12.07,2021-12-17 17:33:05.140625
447,11.12,2021-12-17 17:33:05.156250
448,9.55,2021-12-17 17:33:05.171875
449,7.76,2021-12-17 17:33:05.187500
450,6.15,2021-12-17 17:33:05.203125
451,5.04,2021-12-17 17:33:05.218750
452,4.56,2021-12-17 17:33:05.234375
453,4.71,2021-12-17 17:33:05.250000
454,5.35,2021-12-17 17:33:05.265625
455,6.25,2021-12-17 17:33:05.281250
456,7.23,2021-12-17 17:33:05.296875
457,8.11,2021-12-17 17:33:05.312500
458,8.73,2021-12-17 17:33:05.328125
459,9.0,2021-12-17 17:33:05.343750
460,8.89,2021-12-17 17:33:05.359375
461,8.45,2021-12-17 17:33:05.375000
462,7.78,2021-12-17 17:33:05.390625
463,7.0,2021-12-17 17:33:05.406250
464,6.27,2021-12-17 17:33:05.421875
465,5.66,2021-12-17 17:33:05.437500
466,5.23,2021-12-17 17:33:05.453125
467,4.99,2021-12-17 17:33:05.468750
468,4.87,2021-12-17 17:33:05.484375
469,4.8,2021-12-17 17:33:05.500000
470,4.7,2021-12-17 17:33:05.515625
471,4.5,2021-12-17 17:33:05.531250
472,4.15,2021-12-17 17:33:05.546875
473,3.64,2021-12-17 17:33:05.562500
474,2.99,2021-12-17 17:33:05.578125
475,2.23,2021-12-17 17:33:05.593750
476,1.35,2021-12-17 17:33:05.609375
477,0.34,2021-12-17 17:33:05.625000
478,-0.79,2021-12-17 17:33:05.640625
479,-2.0,2021-12-17 17:33:05.656250
480,-3.19,2021-12-17 17:33:05.671875
481,-4.2,2021-12-17 17:33:05.687500
482,-4.93,2021-12-17 17:33:05.703125
483,-5.42,2021-12-17 17:33:05.718750
484,-5.82,2021-12-17 17:33:05.734375
485,-6.36,2021-12-17 17:33:05.750000
486,-7.2,2021-12-17 17:33:05.765625
487,-8.4,2021-12-17 17:33:05.781250
488,-9.8,2021-12-17 17:33:05.796875
489,-11.1,2021-12-17 17:33:05.812500
490,-11.91,2021-12-17 17:33:05.828125
491,-11.96,2021-12-17 17:33:05.843750
492,-11.16,2021-12-17 17:33:05.859375
493,-9.63,2021-12-17 17:33:05.875000
494,-7.71,2021-12-17 17:33:05.890625
495,-5.78,2021-12-17 17:33:05.906250
496,-4.12,2021-12-17 17:33:05.921875
497,-2.92,2021-12-17 17:33:05.937500
498,-2.17,2021-12-17 17:33:05.953125
499,-1.76,2021-12-17 17:33:05.968750
500,-1.57,2021-12-17 17:33:05.984375
501,-1.55,2021-12-17 17:33:06.000000
502,-1.63,2021-12-17 17:33:06.015625
503,-1.8,2021-12-17 17:33:06.031250
504,-1.97,2021-12-17 17:33:06.046875
505,-2.03,2021-12-17 17:33:06.062500
506,-1.89,2021-12-17 17:33:06.078125
507,-1.38,2021-12-17 17:33:06.093750
508,-0.36,2021-12-17 17:33:06.109375
509,1.28,2021-12-17 17:33:06.125000
510,3.6,2021-12-17 17:33:06.140625
511,6.54,2021-12-17 17:33:06.156250
512,9.86,2021-12-17 17:33:06.171875
513,13.26,2021-12-17 17:33:06.187500
514,16.32,2021-12-17 17:33:06.203125
515,18.7,2021-12-17 17:33:06.218750
516,20.19,2021-12-17 17:33:06.234375
517,20.69,2021-12-17 17:33:06.250000
518,20.21,2021-12-17 17:33:06.265625
519,18.8,2021-12-17 17:33:06.281250
520,16.61,2021-12-17 17:33:06.296875
521,13.82,2021-12-17 17:33:06.312500
522,10.79,2021-12-17 17:33:06.328125
523,7.85,2021-12-17 17:33:06.343750
524,5.31,2021-12-17 17:33:06.359375
525,3.32,2021-12-17 17:33:06.375000
526,1.84,2021-12-17 17:33:06.390625
527,0.75,2021-12-17 17:33:06.406250
528,-0.14,2021-12-17 17:33:06.421875
529,-0.94,2021-12-17 17:33:06.437500
530,-1.71,2021-12-17 17:33:06.453125
531,-2.43,2021-12-17 17:33:06.468750
532,-3.04,2021-12-17 17:33:06.484375
533,-3.45,2021-12-17 17:33:06.500000
534,-3.57,2021-12-17 17:33:06.515625
535,-3.38,2021-12-17 17:33:06.531250
536,-2.93,2021-12-17 17:33:06.546875
537,-2.34,2021-12-17 17:33:06.562500
538,-1.83,2021-12-17 17:33:06.578125
539,-1.58,2021-12-17 17:33:06.593750
540,-1.65,2021-12-17 17:33:06.609375
541,-1.89,2021-12-17 17:33:06.625000
542,-2.08,2021-12-17 17:33:06.640625
543,-2.0,2021-12-17 17:33:06.656250
544,-1.61,2021-12-17 17:33:06.671875
545,-1.01,2021-12-17 17:33:06.687500
546,-0.34,2021-12-17 17:33:06.703125
547,0.27,2021-12-17 17:33:06.718750
548,0.87,2021-12-17 17:33:06.734375
549,1.59,2021-12-17 17:33:06.750000
550,2.59,2021-12-17 17:33:06.765625
551,3.98,2021-12-17 17:33:06.781250
552,5.7,2021-12-17 17:33:06.796875
553,7.59,2021-12-17 17:33:06.812500
554,9.41,2021-12-17 17:33:06.828125
555,10.93,2021-12-17 17:33:06.843750
556,11.94,2021-12-17 17:33:06.859375
557,12.24,2021-12-17 17:33:06.875000
558,11.64,2021-12-17 17:33:06.890625
559,10.07,2021-12-17 17:33:06.906250
560,7.59,2021-12-17 17:33:06.921875
561,4.45,2021-12-17 17:33:06.937500
562,1.12,2021-12-17 17:33:06.953125
563,-1.86,2021-12-17 17:33:06.968750
564,-4.05,2021-12-17 17:33:06.984375
565,-5.2,2021-12-17 17:33:07.000000
566,-5.39,2021-12-17 17:33:07.015625
567,-4.88,2021-12-17 17:33:07.031250
568,-4.06,2021-12-17 17:33:07.046875
569,-3.24,2021-12-17 17:33:07.062500
570,-2.56,2021-12-17 17:33:07.078125
571,-1.99,2021-12-17 17:33:07.093750
572,-1.45,2021-12-17 17:33:07.109375
573,-0.91,2021-12-17 17:33:07.125000
574,-0.42,2021-12-17 17:33:07.140625
575,-0.11,2021-12-17 17:33:07.156250
576,-0.05,2021-12-17 17:33:07.171875
577,-0.23,2021-12-17 17:33:07.187500
578,-0.57,2021-12-17 17:33:07.203125
579,-0.95,2021-12-17 17:33:07.218750
580,-1.3,2021-12-17 17:33:07.234375
581,-1.61,2021-12-17 17:33:07.250000
582,-1.91,2021-12-17 17:33:07.265625
583,-2.23,2021-12-17 17:33:07.281250
584,-2.51,2021-12-17 17:33:07.296875
585,-2.64,2021-12-17 17:33:07.312500
586,-2.51,2021-12-17 17:33:07.328125
587,-2.03,2021-12-17 17:33:07.343750
588,-1.18,2021-12-17 17:33:07.359375
589,-0.05,2021-12-17 17:33:07.375000
590,1.24,2021-12-17 17:33:07.390625
591,2.51,2021-12-17 17:33:07.406250
592,3.63,2021-12-17 17:33:07.421875
593,4.53,2021-12-17 17:33:07.437500
594,5.22,2021-12-17 17:33:07.453125
595,5.71,2021-12-17 17:33:07.468750
596,6.05,2021-12-17 17:33:07.484375
597,6.25,2021-12-17 17:33:07.500000
598,6.26,2021-12-17 17:33:07.515625
599,6.03,2021-12-17 17:33:07.531250
600,5.56,2021-12-17 17:33:07.546875
601,4.87,2021-12-17 17:33:07.562500
602,4.05,2021-12-17 17:33:07.578125
603,3.2,2021-12-17 17:33:07.593750
604,2.37,2021-12-17 17:33:07.609375
605,1.56,2021-12-17 17:33:07.625000
606,0.79,2021-12-17 17:33:07.640625
607,0.07,2021-12-17 17:33:07.656250
608,-0.51,2021-12-17 17:33:07.671875
609,-0.84,2021-12-17 17:33:07.687500
610,-0.9,2021-12-17 17:33:07.703125
611,-0.78,2021-12-17 17:33:07.718750
612,-0.59,2021-12-17 17:33:07.734375
613,-0.51,2021-12-17 17:33:07.750000
614,-0.64,2021-12-17 17:33:07.765625
615,-0.95,2021-12-17 17:33:07.781250
616,-1.31,2021-12-17 17:33:07.796875
617,-1.53,2021-12-17 17:33:07.812500
618,-1.5,2021-12-17 17:33:07.828125
619,-1.22,2021-12-17 17:33:07.843750
620,-0.85,2021-12-17 17:33:07.859375
621,-0.6,2021-12-17 17:33:07.875000
622,-0.65,2021-12-17 17:33:07.890625
623,-1.06,2021-12-17 17:33:07.906250
624,-1.69,2021-12-17 17:33:07.921875
625,-2.31,2021-12-17 17:33:07.937500
626,-2.66,2021-12-17 17:33:07.953125
627,-2.62,2021-12-17 17:33:07.968750
628,-2.28,2021-12-17 17:33:07.984375
629,-1.9,2021-12-17 17:33:08.000000
630,-1.83,2021-12-17 17:33:08.015625
631,-2.29,2021-12-17 17:33:08.031250
632,-3.29,2021-12-17 17:33:08.046875
633,-4.57,2021-12-17 17:33:08.062500
634,-5.74,2021-12-17 17:33:08.078125
635,-6.39,2021-12-17 17:33:08.093750
636,-6.28,2021-12-17 17:33:08.109375
637,-5.38,2021-12-17 17:33:08.125000
638,-3.86,2021-12-17 17:33:08.140625
639,-2.05,2021-12-17 17:33:08.156250
640,-0.28,2021-12-17 17:33:08.171875
641,1.13,2021-12-17 17:33:08.187500
642,1.98,2021-12-17 17:33:08.203125
643,2.2,2021-12-17 17:33:08.218750
644,1.91,2021-12-17 17:33:08.234375
645,1.3,2021-12-17 17:33:08.250000
646,0.62,2021-12-17 17:33:08.265625
647,0.07,2021-12-17 17:33:08.281250
648,-0.22,2021-12-17 17:33:08.296875
649,-0.23,2021-12-17 17:33:08.312500
650,-0.04,2021-12-17 17:33:08.328125
651,0.25,2021-12-17 17:33:08.343750
652,0.57,2021-12-17 17:33:08.359375
653,0.87,2021-12-17 17:33:08.375000
654,1.2,2021-12-17 17:33:08.390625
655,1.5,2021-12-17 17:33:08.406250
656,1.73,2021-12-17 17:33:08.421875
657,1.75,2021-12-17 17:33:08.437500
658,1.43,2021-12-17 17:33:08.453125
659,0.73,2021-12-17 17:33:08.468750
660,-0.24,2021-12-17 17:33:08.484375
661,-1.2,2021-12-17 17:33:08.500000
662,-1.83,2021-12-17 17:33:08.515625
663,-1.92,2021-12-17 17:33:08.531250
664,-1.5,2021-12-17 17:33:08.546875
665,-0.8,2021-12-17 17:33:08.562500
666,-0.2,2021-12-17 17:33:08.578125
667,0.02,2021-12-17 17:33:08.593750
668,-0.16,2021-12-17 17:33:08.609375
669,-0.57,2021-12-17 17:33:08.625000
670,-0.92,2021-12-17 17:33:08.640625
671,-0.96,2021-12-17 17:33:08.656250
672,-0.64,2021-12-17 17:33:08.671875
673,-0.08,2021-12-17 17:33:08.687500
674,0.56,2021-12-17 17:33:08.703125
675,1.15,2021-12-17 17:33:08.718750
676,1.66,2021-12-17 17:33:08.734375
677,2.11,2021-12-17 17:33:08.750000
678,2.48,2021-12-17 17:33:08.765625
679,2.7,2021-12-17 17:33:08.781250
680,2.63,2021-12-17 17:33:08.796875
681,2.16,2021-12-17 17:33:08.812500
682,1.33,2021-12-17 17:33:08.828125
683,0.34,2021-12-17 17:33:08.843750
684,-0.56,2021-12-17 17:33:08.859375
685,-1.2,2021-12-17 17:33:08.875000
686,-1.54,2021-12-17 17:33:08.890625
687,-1.74,2021-12-17 17:33:08.906250
688,-2.01,2021-12-17 17:33:08.921875
689,-2.48,2021-12-17 17:33:08.937500
690,-3.07,2021-12-17 17:33:08.953125
691,-3.55,2021-12-17 17:33:08.968750
692,-3.68,2021-12-17 17:33:08.984375
693,-3.32,2021-12-17 17:33:09.000000
694,-2.59,2021-12-17 17:33:09.015625
695,-1.7,2021-12-17 17:33:09.031250
696,-0.94,2021-12-17 17:33:09.046875
697,-0.5,2021-12-17 17:33:09.062500
698,-0.36,2021-12-17 17:33:09.078125
699,-0.44,2021-12-17 17:33:09.093750
700,-0.55,2021-12-17 17:33:09.109375
701,-0.63,2021-12-17 17:33:09.125000
702,-0.68,2021-12-17 17:33:09.140625
703,-0.72,2021-12-17 17:33:09.156250
704,-0.74,2021-12-17 17:33:09.171875
705,-0.77,2021-12-17 17:33:09.187500
706,-0.81,2021-12-17 17:33:09.203125
707,-0.9,2021-12-17 17:33:09.218750
708,-1.1,2021-12-17 17:33:09.234375
709,-1.39,2021-12-17 17:33:09.250000
710,-1.69,2021-12-17 17:33:09.265625
711,-1.79,2021-12-17 17:33:09.281250
712,-1.46,2021-12-17 17:33:09.296875
713,-0.5,2021-12-17 17:33:09.312500
714,1.09,2021-12-17 17:33:09.328125
715,3.16,2021-12-17 17:33:09.343750
716,5.37,2021-12-17 17:33:09.359375
717,7.34,2021-12-17 17:33:09.375000
718,8.85,2021-12-17 17:33:09.390625
719,9.85,2021-12-17 17:33:09.406250
720,10.52,2021-12-17 17:33:09.421875
721,11.08,2021-12-17 17:33:09.437500
722,11.73,2021-12-17 17:33:09.453125
723,12.54,2021-12-17 17:33:09.468750
724,13.36,2021-12-17 17:33:09.484375
725,13.95,2021-12-17 17:33:09.500000
726,14.08,2021-12-17 17:33:09.515625
727,13.6,2021-12-17 17:33:09.531250
728,12.54,2021-12-17 17:33:09.546875
729,11.05,2021-12-17 17:33:09.562500
730,9.33,2021-12-17 17:33:09.578125
731,7.55,2021-12-17 17:33:09.593750
732,5.85,2021-12-17 17:33:09.609375
733,4.29,2021-12-17 17:33:09.625000
734,2.92,2021-12-17 17:33:09.640625
735,1.76,2021-12-17 17:33:09.656250
736,0.9,2021-12-17 17:33:09.671875
737,0.44,2021-12-17 17:33:09.687500
738,0.45,2021-12-17 17:33:09.703125
739,0.93,2021-12-17 17:33:09.718750
740,1.78,2021-12-17 17:33:09.734375
741,2.83,2021-12-17 17:33:09.750000
742,3.85,2021-12-17 17:33:09.765625
743,4.7,2021-12-17 17:33:09.781250
744,5.26,2021-12-17 17:33:09.796875
745,5.43,2021-12-17 17:33:09.812500
746,5.16,2021-12-17 17:33:09.828125
747,4.36,2021-12-17 17:33:09.843750
748,2.95,2021-12-17 17:33:09.859375
749,0.92,2021-12-17 17:33:09.875000
750,-1.6,2021-12-17 17:33:09.890625
751,-4.31,2021-12-17 17:33:09.906250
752,-6.74,2021-12-17 17:33:09.921875
753,-8.46,2021-12-17 17:33:09.937500
754,-9.11,2021-12-17 17:33:09.953125
755,-8.62,2021-12-17 17:33:09.968750
756,-7.15,2021-12-17 17:33:09.984375
757,-5.13,2021-12-17 17:33:10.000000
758,-3.01,2021-12-17 17:33:10.015625
759,-1.12,2021-12-17 17:33:10.031250
760,0.36,2021-12-17 17:33:10.046875
761,1.42,2021-12-17 17:33:10.062500
762,2.02,2021-12-17 17:33:10.078125
763,2.05,2021-12-17 17:33:10.093750
764,1.33,2021-12-17 17:33:10.109375
765,-0.24,2021-12-17 17:33:10.125000
766,-2.52,2021-12-17 17:33:10.140625
767,-5.03,2021-12-17 17:33:10.156250
768,-7.05,2021-12-17 17:33:10.171875
769,-7.95,2021-12-17 17:33:10.187500
770,-7.34,2021-12-17 17:33:10.203125
771,-5.28,2021-12-17 17:33:10.218750
772,-2.12,2021-12-17 17:33:10.234375
773,1.64,2021-12-17 17:33:10.250000
774,5.56,2021-12-17 17:33:10.265625
775,9.32,2021-12-17 17:33:10.281250
776,12.69,2021-12-17 17:33:10.296875
777,15.53,2021-12-17 17:33:10.312500
778,17.88,2021-12-17 17:33:10.328125
779,20.01,2021-12-17 17:33:10.343750
780,22.4,2021-12-17 17:33:10.359375
781,25.52,2021-12-17 17:33:10.375000
782,29.56,2021-12-17 17:33:10.390625
783,34.23,2021-12-17 17:33:10.406250
784,38.86,2021-12-17 17:33:10.421875
785,42.73,2021-12-17 17:33:10.437500
786,45.4,2021-12-17 17:33:10.453125
787,47.06,2021-12-17 17:33:10.468750
788,48.3,2021-12-17 17:33:10.484375
789,49.87,2021-12-17 17:33:10.500000
790,52.13,2021-12-17 17:33:10.515625
791,54.91,2021-12-17 17:33:10.531250
792,57.52,2021-12-17 17:33:10.546875
793,58.92,2021-12-17 17:33:10.562500
794,58.1,2021-12-17 17:33:10.578125
795,54.27,2021-12-17 17:33:10.593750
796,46.99,2021-12-17 17:33:10.609375
797,36.38,2021-12-17 17:33:10.625000
798,22.95,2021-12-17 17:33:10.640625
799,7.54,2021-12-17 17:33:10.656250
800,-8.97,2021-12-17 17:33:10.671875
801,-25.9,2021-12-17 17:33:10.687500
802,-42.86,2021-12-17 17:33:10.703125
803,-59.65,2021-12-17 17:33:10.718750
804,-75.94,2021-12-17 17:33:10.734375
805,-91.08,2021-12-17 17:33:10.750000
806,-104.17,2021-12-17 17:33:10.765625
807,-114.4,2021-12-17 17:33:10.781250
808,-121.48,2021-12-17 17:33:10.796875
809,-125.69,2021-12-17 17:33:10.812500
810,-127.66,2021-12-17 17:33:10.828125
811,-127.9,2021-12-17 17:33:10.843750
812,-126.4,2021-12-17 17:33:10.859375
813,-122.73,2021-12-17 17:33:10.875000
814,-116.39,2021-12-17 17:33:10.890625
815,-107.42,2021-12-17 17:33:10.906250
816,-96.66,2021-12-17 17:33:10.921875
817,-85.5,2021-12-17 17:33:10.937500
818,-75.31,2021-12-17 17:33:10.953125
819,-66.73,2021-12-17 17:33:10.968750
820,-59.48,2021-12-17 17:33:10.984375
821,-52.51,2021-12-17 17:33:11.000000
822,-44.6,2021-12-17 17:33:11.015625
823,-35.05,2021-12-17 17:33:11.031250
824,-24.03,2021-12-17 17:33:11.046875
825,-12.58,2021-12-17 17:33:11.062500
826,-2.29,2021-12-17 17:33:11.078125
827,5.19,2021-12-17 17:33:11.093750
828,8.63,2021-12-17 17:33:11.109375
829,7.57,2021-12-17 17:33:11.125000
830,2.39,2021-12-17 17:33:11.140625
831,-5.86,2021-12-17 17:33:11.156250
832,-15.79,2021-12-17 17:33:11.171875
833,-25.8,2021-12-17 17:33:11.187500
834,-34.4,2021-12-17 17:33:11.203125
835,-40.26,2021-12-17 17:33:11.218750
836,-42.46,2021-12-17 17:33:11.234375
837,-40.61,2021-12-17 17:33:11.250000
838,-35.14,2021-12-17 17:33:11.265625
839,-27.21,2021-12-17 17:33:11.281250
840,-18.52,2021-12-17 17:33:11.296875
841,-10.79,2021-12-17 17:33:11.312500
842,-5.2,2021-12-17 17:33:11.328125
843,-2.09,2021-12-17 17:33:11.343750
844,-0.92,2021-12-17 17:33:11.359375
845,-0.57,2021-12-17 17:33:11.375000
846,0.36,2021-12-17 17:33:11.390625
847,3.06,2021-12-17 17:33:11.406250
848,8.36,2021-12-17 17:33:11.421875
849,16.52,2021-12-17 17:33:11.437500
850,27.13,2021-12-17 17:33:11.453125
851,39.2,2021-12-17 17:33:11.468750
852,51.32,2021-12-17 17:33:11.484375
853,61.95,2021-12-17 17:33:11.500000
854,69.96,2021-12-17 17:33:11.515625
855,74.84,2021-12-17 17:33:11.531250
856,76.73,2021-12-17 17:33:11.546875
857,76.21,2021-12-17 17:33:11.562500
858,73.91,2021-12-17 17:33:11.578125
859,70.29,2021-12-17 17:33:11.593750
860,65.59,2021-12-17 17:33:11.609375
861,59.96,2021-12-17 17:33:11.625000
862,53.62,2021-12-17 17:33:11.640625
863,46.95,2021-12-17 17:33:11.656250
864,40.42,2021-12-17 17:33:11.671875
865,34.55,2021-12-17 17:33:11.687500
866,29.81,2021-12-17 17:33:11.703125
867,26.66,2021-12-17 17:33:11.718750
868,25.47,2021-12-17 17:33:11.734375
869,26.58,2021-12-17 17:33:11.750000
870,30.07,2021-12-17 17:33:11.765625
871,35.71,2021-12-17 17:33:11.781250
872,42.81,2021-12-17 17:33:11.796875
873,50.27,2021-12-17 17:33:11.812500
874,56.76,2021-12-17 17:33:11.828125
875,60.93,2021-12-17 17:33:11.843750
876,61.82,2021-12-17 17:33:11.859375
877,59.07,2021-12-17 17:33:11.875000
878,53.06,2021-12-17 17:33:11.890625
879,44.7,2021-12-17 17:33:11.906250
880,35.21,2021-12-17 17:33:11.921875
881,25.7,2021-12-17 17:33:11.937500
882,16.82,2021-12-17 17:33:11.953125
883,8.68,2021-12-17 17:33:11.968750
884,0.91,2021-12-17 17:33:11.984375
885,-6.85,2021-12-17 17:33:12.000000
886,-14.74,2021-12-17 17:33:12.015625
887,-22.38,2021-12-17 17:33:12.031250
888,-28.99,2021-12-17 17:33:12.046875
889,-33.65,2021-12-17 17:33:12.062500
890,-35.63,2021-12-17 17:33:12.078125
891,-34.7,2021-12-17 17:33:12.093750
892,-31.2,2021-12-17 17:33:12.109375
893,-25.84,2021-12-17 17:33:12.125000
894,-19.41,2021-12-17 17:33:12.140625
895,-12.58,2021-12-17 17:33:12.156250
896,-5.73,2021-12-17 17:33:12.171875
897,0.92,2021-12-17 17:33:12.187500
898,7.17,2021-12-17 17:33:12.203125
899,12.81,2021-12-17 17:33:12.218750
900,17.55,2021-12-17 17:33:12.234375
901,21.23,2021-12-17 17:33:12.250000
902,23.84,2021-12-17 17:33:12.265625
903,25.62,2021-12-17 17:33:12.281250
904,26.92,2021-12-17 17:33:12.296875
905,28.07,2021-12-17 17:33:12.312500
906,29.27,2021-12-17 17:33:12.328125
907,30.5,2021-12-17 17:33:12.343750
908,31.61,2021-12-17 17:33:12.359375
909,32.45,2021-12-17 17:33:12.375000
910,32.89,2021-12-17 17:33:12.390625
911,32.89,2021-12-17 17:33:12.406250
912,32.52,2021-12-17 17:33:12.421875
913,31.96,2021-12-17 17:33:12.437500
914,31.34,2021-12-17 17:33:12.453125
915,30.86,2021-12-17 17:33:12.468750
916,30.51,2021-12-17 17:33:12.484375
917,30.23,2021-12-17 17:33:12.500000
918,29.89,2021-12-17 17:33:12.515625
919,29.33,2021-12-17 17:33:12.531250
920,28.49,2021-12-17 17:33:12.546875
921,27.29,2021-12-17 17:33:12.562500
922,25.63,2021-12-17 17:33:12.578125
923,23.25,2021-12-17 17:33:12.593750
924,19.77,2021-12-17 17:33:12.609375
925,14.67,2021-12-17 17:33:12.625000
926,7.57,2021-12-17 17:33:12.640625
927,-1.58,2021-12-17 17:33:12.656250
928,-12.34,2021-12-17 17:33:12.671875
929,-23.74,2021-12-17 17:33:12.687500
930,-34.48,2021-12-17 17:33:12.703125
931,-43.3,2021-12-17 17:33:12.718750
932,-49.26,2021-12-17 17:33:12.734375
933,-52.01,2021-12-17 17:33:12.750000
934,-51.86,2021-12-17 17:33:12.765625
935,-49.64,2021-12-17 17:33:12.781250
936,-46.42,2021-12-17 17:33:12.796875
937,-43.21,2021-12-17 17:33:12.812500
938,-40.73,2021-12-17 17:33:12.828125
939,-39.28,2021-12-17 17:33:12.843750
940,-38.72,2021-12-17 17:33:12.859375
941,-38.63,2021-12-17 17:33:12.875000
942,-38.34,2021-12-17 17:33:12.890625
943,-37.17,2021-12-17 17:33:12.906250
944,-34.61,2021-12-17 17:33:12.921875
945,-30.43,2021-12-17 17:33:12.937500
946,-24.88,2021-12-17 17:33:12.953125
947,-18.58,2021-12-17 17:33:12.968750
948,-12.35,2021-12-17 17:33:12.984375
949,-6.92,2021-12-17 17:33:13.000000
950,-2.54,2021-12-17 17:33:13.015625
951,1.03,2021-12-17 17:33:13.031250
952,4.43,2021-12-17 17:33:13.046875
953,8.33,2021-12-17 17:33:13.062500
954,12.93,2021-12-17 17:33:13.078125
955,17.79,2021-12-17 17:33:13.093750
956,21.88,2021-12-17 17:33:13.109375
957,24.06,2021-12-17 17:33:13.125000
958,23.72,2021-12-17 17:33:13.140625
959,21.13,2021-12-17 17:33:13.156250
960,17.47,2021-12-17 17:33:13.171875
961,14.3,2021-12-17 17:33:13.187500
962,12.89,2021-12-17 17:33:13.203125
963,13.56,2021-12-17 17:33:13.218750
964,15.43,2021-12-17 17:33:13.234375
965,16.81,2021-12-17 17:33:13.250000
966,15.94,2021-12-17 17:33:13.265625
967,11.9,2021-12-17 17:33:13.281250
968,4.91,2021-12-17 17:33:13.296875
969,-3.64,2021-12-17 17:33:13.312500
970,-11.58,2021-12-17 17:33:13.328125
971,-16.79,2021-12-17 17:33:13.343750
972,-17.96,2021-12-17 17:33:13.359375
973,-15.14,2021-12-17 17:33:13.375000
974,-9.85,2021-12-17 17:33:13.390625
975,-4.42,2021-12-17 17:33:13.406250
976,-0.86,2021-12-17 17:33:13.421875
977,-0.44,2021-12-17 17:33:13.437500
978,-3.21,2021-12-17 17:33:13.453125
979,-7.89,2021-12-17 17:33:13.468750
980,-12.36,2021-12-17 17:33:13.484375
981,-14.5,2021-12-17 17:33:13.500000
982,-12.75,2021-12-17 17:33:13.515625
983,-6.67,2021-12-17 17:33:13.531250
984,3.48,2021-12-17 17:33:13.546875
985,17.11,2021-12-17 17:33:13.562500
986,33.07,2021-12-17 17:33:13.578125
987,49.97,2021-12-17 17:33:13.593750
988,66.77,2021-12-17 17:33:13.609375
989,83.41,2021-12-17 17:33:13.625000
990,101.09,2021-12-17 17:33:13.640625
991,122.08,2021-12-17 17:33:13.656250
992,148.41,2021-12-17 17:33:13.671875
993,180.45,2021-12-17 17:33:13.687500
994,215.71,2021-12-17 17:33:13.703125
995,247.5,2021-12-17 17:33:13.718750
996,266.23,2021-12-17 17:33:13.734375
997,262.66,2021-12-17 17:33:13.750000
998,231.56,2021-12-17 17:33:13.765625
999,174.09,2021-12-17 17:33:13.781250
1000,97.72,2021-12-17 17:33:13.796875
1001,13.42,2021-12-17 17:33:13.812500
1002,-70.2,2021-12-17 17:33:13.828125
1003,-143.02,2021-12-17 17:33:13.843750
1004,-197.04,2021-12-17 17:33:13.859375
1005,-228.24,2021-12-17 17:33:13.875000
1006,-237.23,2021-12-17 17:33:13.890625
1007,-228.03,2021-12-17 17:33:13.906250
1008,-206.89,2021-12-17 17:33:13.921875
1009,-179.85,2021-12-17 17:33:13.937500
1010,-153.17,2021-12-17 17:33:13.953125
1011,-133.11,2021-12-17 17:33:13.968750
1012,-124.11,2021-12-17 17:33:13.984375
1013,-127.91,2021-12-17 17:33:14.000000
1014,-143.03,2021-12-17 17:33:14.015625
1015,-163.94,2021-12-17 17:33:14.031250
1016,-182.25,2021-12-17 17:33:14.046875
1017,-189.93,2021-12-17 17:33:14.062500
1018,-182.69,2021-12-17 17:33:14.078125
1019,-161.76,2021-12-17 17:33:14.093750
1020,-133.84,2021-12-17 17:33:14.109375
1021,-107.84,2021-12-17 17:33:14.125000
1022,-90.16,2021-12-17 17:33:14.140625
1023,-81.81,2021-12-17 17:33:14.156250
1024,-79.53,2021-12-17 17:33:14.171875
1025,-79.21,2021-12-17 17:33:14.187500
1026,-77.17,2021-12-17 17:33:14.203125
1027,-71.73,2021-12-17 17:33:14.218750
1028,-63.21,2021-12-17 17:33:14.234375
1029,-52.65,2021-12-17 17:33:14.250000
1030,-39.98,2021-12-17 17:33:14.265625
1031,-23.78,2021-12-17 17:33:14.281250
1032,-1.88,2021-12-17 17:33:14.296875
1033,27.36,2021-12-17 17:33:14.312500
1034,63.88,2021-12-17 17:33:14.328125
1035,105.17,2021-12-17 17:33:14.343750
1036,146.01,2021-12-17 17:33:14.359375
1037,179.55,2021-12-17 17:33:14.375000
1038,198.97,2021-12-17 17:33:14.390625
1039,199.83,2021-12-17 17:33:14.406250
1040,181.42,2021-12-17 17:33:14.421875
1041,147.09,2021-12-17 17:33:14.437500
1042,103.31,2021-12-17 17:33:14.453125
1043,57.92,2021-12-17 17:33:14.468750
1044,18.16,2021-12-17 17:33:14.484375
1045,-11.03,2021-12-17 17:33:14.500000
1046,-27.48,2021-12-17 17:33:14.515625
1047,-31.64,2021-12-17 17:33:14.531250
1048,-25.4,2021-12-17 17:33:14.546875
1049,-10.94,2021-12-17 17:33:14.562500
1050,9.88,2021-12-17 17:33:14.578125
1051,35.52,2021-12-17 17:33:14.593750
1052,64.35,2021-12-17 17:33:14.609375
1053,94.1,2021-12-17 17:33:14.625000
1054,121.71,2021-12-17 17:33:14.640625
1055,144.17,2021-12-17 17:33:14.656250
1056,159.11,2021-12-17 17:33:14.671875
1057,165.73,2021-12-17 17:33:14.687500
1058,165.09,2021-12-17 17:33:14.703125
1059,159.74,2021-12-17 17:33:14.718750
1060,152.6,2021-12-17 17:33:14.734375
1061,146.01,2021-12-17 17:33:14.750000
1062,141.24,2021-12-17 17:33:14.765625
1063,138.81,2021-12-17 17:33:14.781250
1064,139.22,2021-12-17 17:33:14.796875
1065,142.25,2021-12-17 17:33:14.812500
1066,146.17,2021-12-17 17:33:14.828125
1067,147.29,2021-12-17 17:33:14.843750
1068,140.39,2021-12-17 17:33:14.859375
1069,120.3,2021-12-17 17:33:14.875000
1070,84.13,2021-12-17 17:33:14.890625
1071,32.85,2021-12-17 17:33:14.906250
1072,-30.43,2021-12-17 17:33:14.921875
1073,-97.09,2021-12-17 17:33:14.937500
1074,-156.21,2021-12-17 17:33:14.953125
1075,-198.59,2021-12-17 17:33:14.968750
1076,-220.19,2021-12-17 17:33:14.984375
1077,-222.8,2021-12-17 17:33:15.000000
1078,-211.68,2021-12-17 17:33:15.015625
1079,-192.5,2021-12-17 17:33:15.031250
1080,-169.46,2021-12-17 17:33:15.046875
1081,-145.23,2021-12-17 17:33:15.062500
1082,-121.36,2021-12-17 17:33:15.078125
1083,-99.64,2021-12-17 17:33:15.093750
1084,-81.87,2021-12-17 17:33:15.109375
1085,-69.27,2021-12-17 17:33:15.125000
1086,-61.77,2021-12-17 17:33:15.140625
1087,-57.98,2021-12-17 17:33:15.156250
1088,-55.69,2021-12-17 17:33:15.171875
1089,-52.93,2021-12-17 17:33:15.187500
1090,-48.59,2021-12-17 17:33:15.203125
1091,-42.44,2021-12-17 17:33:15.218750
1092,-35.4,2021-12-17 17:33:15.234375
1093,-28.93,2021-12-17 17:33:15.250000
1094,-24.31,2021-12-17 17:33:15.265625
1095,-22.02,2021-12-17 17:33:15.281250
1096,-21.55,2021-12-17 17:33:15.296875
1097,-21.72,2021-12-17 17:33:15.312500
1098,-21.37,2021-12-17 17:33:15.328125
1099,-19.78,2021-12-17 17:33:15.343750
1100,-16.76,2021-12-17 17:33:15.359375
1101,-12.86,2021-12-17 17:33:15.375000
1102,-9.01,2021-12-17 17:33:15.390625
1103,-6.08,2021-12-17 17:33:15.406250
1104,-4.5,2021-12-17 17:33:15.421875
1105,-4.07,2021-12-17 17:33:15.437500
1106,-4.2,2021-12-17 17:33:15.453125
1107,-4.21,2021-12-17 17:33:15.468750
1108,-3.62,2021-12-17 17:33:15.484375
1109,-2.27,2021-12-17 17:33:15.500000
1110,-0.38,2021-12-17 17:33:15.515625
1111,1.6,2021-12-17 17:33:15.531250
1112,3.22,2021-12-17 17:33:15.546875
1113,4.16,2021-12-17 17:33:15.562500
1114,4.43,2021-12-17 17:33:15.578125
1115,4.26,2021-12-17 17:33:15.593750
1116,4.02,2021-12-17 17:33:15.609375
1117,4.04,2021-12-17 17:33:15.625000
1118,4.54,2021-12-17 17:33:15.640625
1119,5.54,2021-12-17 17:33:15.656250
1120,6.84,2021-12-17 17:33:15.671875
1121,8.12,2021-12-17 17:33:15.687500
1122,9.04,2021-12-17 17:33:15.703125
1123,9.4,2021-12-17 17:33:15.718750
1124,9.21,2021-12-17 17:33:15.734375
1125,8.82,2021-12-17 17:33:15.750000
1126,8.77,2021-12-17 17:33:15.765625
1127,9.68,2021-12-17 17:33:15.781250
1128,12.0,2021-12-17 17:33:15.796875
1129,15.79,2021-12-17 17:33:15.812500
1130,20.7,2021-12-17 17:33:15.828125
1131,26.04,2021-12-17 17:33:15.843750
1132,30.96,2021-12-17 17:33:15.859375
1133,34.85,2021-12-17 17:33:15.875000
1134,37.43,2021-12-17 17:33:15.890625
1135,38.85,2021-12-17 17:33:15.906250
1136,39.55,2021-12-17 17:33:15.921875
1137,39.62,2021-12-17 17:33:15.937500
1138,38.83,2021-12-17 17:33:15.953125
1139,36.49,2021-12-17 17:33:15.968750
1140,31.74,2021-12-17 17:33:15.984375
1141,23.94,2021-12-17 17:33:16.000000
1142,13.21,2021-12-17 17:33:16.015625
1143,0.59,2021-12-17 17:33:16.031250
1144,-12.16,2021-12-17 17:33:16.046875
1145,-23.06,2021-12-17 17:33:16.062500
1146,-30.66,2021-12-17 17:33:16.078125
1147,-34.43,2021-12-17 17:33:16.093750
1148,-34.97,2021-12-17 17:33:16.109375
1149,-33.62,2021-12-17 17:33:16.125000
1150,-32.05,2021-12-17 17:33:16.140625
1151,-31.63,2021-12-17 17:33:16.156250
1152,-33.2,2021-12-17 17:33:16.171875
1153,-36.72,2021-12-17 17:33:16.187500
1154,-41.02,2021-12-17 17:33:16.203125
1155,-43.81,2021-12-17 17:33:16.218750
1156,-41.95,2021-12-17 17:33:16.234375
1157,-32.56,2021-12-17 17:33:16.250000
1158,-14.46,2021-12-17 17:33:16.265625
1159,10.61,2021-12-17 17:33:16.281250
1160,37.94,2021-12-17 17:33:16.296875
1161,60.97,2021-12-17 17:33:16.312500
1162,73.69,2021-12-17 17:33:16.328125
1163,73.11,2021-12-17 17:33:16.343750
1164,60.21,2021-12-17 17:33:16.359375
1165,39.47,2021-12-17 17:33:16.375000
1166,16.88,2021-12-17 17:33:16.390625
1167,-2.43,2021-12-17 17:33:16.406250
1168,-15.68,2021-12-17 17:33:16.421875
1169,-22.63,2021-12-17 17:33:16.437500
1170,-24.7,2021-12-17 17:33:16.453125
1171,-23.61,2021-12-17 17:33:16.468750
1172,-20.5,2021-12-17 17:33:16.484375
1173,-15.85,2021-12-17 17:33:16.500000
1174,-9.88,2021-12-17 17:33:16.515625
1175,-2.78,2021-12-17 17:33:16.531250
1176,5.0,2021-12-17 17:33:16.546875
1177,12.81,2021-12-17 17:33:16.562500
1178,19.99,2021-12-17 17:33:16.578125
1179,26.15,2021-12-17 17:33:16.593750
1180,31.39,2021-12-17 17:33:16.609375
1181,36.24,2021-12-17 17:33:16.625000
1182,41.5,2021-12-17 17:33:16.640625
1183,47.52,2021-12-17 17:33:16.656250
1184,54.35,2021-12-17 17:33:16.671875
1185,61.55,2021-12-17 17:33:16.687500
1186,68.29,2021-12-17 17:33:16.703125
1187,73.66,2021-12-17 17:33:16.718750
1188,77.1,2021-12-17 17:33:16.734375
1189,78.66,2021-12-17 17:33:16.750000
1190,79.0,2021-12-17 17:33:16.765625
1191,79.15,2021-12-17 17:33:16.781250
1192,79.75,2021-12-17 17:33:16.796875
1193,81.35,2021-12-17 17:33:16.812500
1194,84.07,2021-12-17 17:33:16.828125
1195,87.71,2021-12-17 17:33:16.843750
1196,91.69,2021-12-17 17:33:16.859375
1197,95.21,2021-12-17 17:33:16.875000
1198,97.26,2021-12-17 17:33:16.890625
1199,96.66,2021-12-17 17:33:16.906250
1200,94.77,2021-12-17 17:33:16.921875
1201,91.75,2021-12-17 17:33:16.937500
1202,87.71,2021-12-17 17:33:16.953125
1203,82.64,2021-12-17 17:33:16.968750
1204,76.62,2021-12-17 17:33:16.984375
1205,69.56,2021-12-17 17:33:17.000000
1206,61.33,2021-12-17 17:33:17.015625
1207,51.94,2021-12-17 17:33:17.031250
1208,41.55,2021-12-17 17:33:17.046875
1209,30.53,2021-12-17 17:33:17.062500
1210,18.99,2021-12-17 17:33:17.078125
1211,7.48,2021-12-17 17:33:17.093750
1212,-2.93,2021-12-17 17:33:17.109375
1213,-10.55,2021-12-17 17:33:17.125000
1214,-13.46,2021-12-17 17:33:17.140625
1215,-10.26,2021-12-17 17:33:17.156250
1216,-0.92,2021-12-17 17:33:17.171875
1217,12.71,2021-12-17 17:33:17.187500
1218,27.34,2021-12-17 17:33:17.203125
1219,39.04,2021-12-17 17:33:17.218750
1220,45.08,2021-12-17 17:33:17.234375
1221,44.72,2021-12-17 17:33:17.250000
1222,39.05,2021-12-17 17:33:17.265625
1223,30.19,2021-12-17 17:33:17.281250
1224,20.1,2021-12-17 17:33:17.296875
1225,10.01,2021-12-17 17:33:17.312500
1226,0.42,2021-12-17 17:33:17.328125
1227,-8.37,2021-12-17 17:33:17.343750
1228,-16.02,2021-12-17 17:33:17.359375
1229,-21.92,2021-12-17 17:33:17.375000
1230,-25.69,2021-12-17 17:33:17.390625
1231,-27.57,2021-12-17 17:33:17.406250
1232,-28.47,2021-12-17 17:33:17.421875
1233,-29.57,2021-12-17 17:33:17.437500
1234,-31.74,2021-12-17 17:33:17.453125
1235,-35.28,2021-12-17 17:33:17.468750
1236,-39.7,2021-12-17 17:33:17.484375
1237,-44.24,2021-12-17 17:33:17.500000
1238,-48.12,2021-12-17 17:33:17.515625
1239,-50.98,2021-12-17 17:33:17.531250
1240,-53.04,2021-12-17 17:33:17.546875
1241,-54.99,2021-12-17 17:33:17.562500
1242,-57.7,2021-12-17 17:33:17.578125
1243,-61.9,2021-12-17 17:33:17.593750
1244,-67.85,2021-12-17 17:33:17.609375
1245,-75.23,2021-12-17 17:33:17.625000
1246,-83.32,2021-12-17 17:33:17.640625
1247,-91.13,2021-12-17 17:33:17.656250
1248,-97.77,2021-12-17 17:33:17.671875
1249,-102.66,2021-12-17 17:33:17.687500
1250,-105.73,2021-12-17 17:33:17.703125
1251,-107.37,2021-12-17 17:33:17.718750
1252,-108.28,2021-12-17 17:33:17.734375
1253,-109.23,2021-12-17 17:33:17.750000
1254,-110.74,2021-12-17 17:33:17.765625
1255,-113.02,2021-12-17 17:33:17.781250
1256,-115.88,2021-12-17 17:33:17.796875
1257,-118.84,2021-12-17 17:33:17.812500
1258,-121.28,2021-12-17 17:33:17.828125
1259,-122.8,2021-12-17 17:33:17.843750
1260,-123.28,2021-12-17 17:33:17.859375
1261,-122.94,2021-12-17 17:33:17.875000
1262,-122.09,2021-12-17 17:33:17.890625
1263,-120.98,2021-12-17 17:33:17.906250
1264,-119.57,2021-12-17 17:33:17.921875
1265,-117.58,2021-12-17 17:33:17.937500
1266,-114.7,2021-12-17 17:33:17.953125
1267,-110.67,2021-12-17 17:33:17.968750
1268,-105.52,2021-12-17 17:33:17.984375
1269,-99.49,2021-12-17 17:33:18.000000
1270,-92.96,2021-12-17 17:33:18.015625
1271,-86.31,2021-12-17 17:33:18.031250
1272,-79.88,2021-12-17 17:33:18.046875
1273,-73.88,2021-12-17 17:33:18.062500
1274,-68.31,2021-12-17 17:33:18.078125
1275,-62.98,2021-12-17 17:33:18.093750
1276,-57.43,2021-12-17 17:33:18.109375
1277,-51.25,2021-12-17 17:33:18.125000
1278,-44.18,2021-12-17 17:33:18.140625
1279,-36.44,2021-12-17 17:33:18.156250
1280,-28.66,2021-12-17 17:33:18.171875
1281,-21.65,2021-12-17 17:33:18.187500
1282,-16.1,2021-12-17 17:33:18.203125
1283,-12.27,2021-12-17 17:33:18.218750
1284,-9.92,2021-12-17 17:33:18.234375
1285,-8.51,2021-12-17 17:33:18.250000
1286,-7.47,2021-12-17 17:33:18.265625
1287,-6.42,2021-12-17 17:33:18.281250
1288,-5.23,2021-12-17 17:33:18.296875
1289,-4.01,2021-12-17 17:33:18.312500
1290,-2.98,2021-12-17 17:33:18.328125
1291,-2.29,2021-12-17 17:33:18.343750
1292,-1.92,2021-12-17 17:33:18.359375
1293,-1.64,2021-12-17 17:33:18.375000
1294,-1.08,2021-12-17 17:33:18.390625
1295,0.12,2021-12-17 17:33:18.406250
1296,2.13,2021-12-17 17:33:18.421875
1297,4.82,2021-12-17 17:33:18.437500
1298,7.84,2021-12-17 17:33:18.453125
1299,10.78,2021-12-17 17:33:18.468750
1300,13.36,2021-12-17 17:33:18.484375
1301,15.57,2021-12-17 17:33:18.500000
1302,17.6,2021-12-17 17:33:18.515625
1303,19.62,2021-12-17 17:33:18.531250
1304,21.63,2021-12-17 17:33:18.546875
1305,23.37,2021-12-17 17:33:18.562500
1306,24.46,2021-12-17 17:33:18.578125
1307,24.62,2021-12-17 17:33:18.593750
1308,23.79,2021-12-17 17:33:18.609375
1309,22.1,2021-12-17 17:33:18.625000
1310,19.81,2021-12-17 17:33:18.640625
1311,17.23,2021-12-17 17:33:18.656250
1312,14.64,2021-12-17 17:33:18.671875
1313,12.36,2021-12-17 17:33:18.687500
1314,10.69,2021-12-17 17:33:18.703125
1315,9.9,2021-12-17 17:33:18.718750
1316,10.13,2021-12-17 17:33:18.734375
1317,11.35,2021-12-17 17:33:18.750000
1318,13.37,2021-12-17 17:33:18.765625
1319,15.81,2021-12-17 17:33:18.781250
1320,18.3,2021-12-17 17:33:18.796875
1321,20.47,2021-12-17 17:33:18.812500
1322,22.02,2021-12-17 17:33:18.828125
1323,22.78,2021-12-17 17:33:18.843750
1324,22.63,2021-12-17 17:33:18.859375
1325,21.56,2021-12-17 17:33:18.875000
1326,19.71,2021-12-17 17:33:18.890625
1327,17.29,2021-12-17 17:33:18.906250
1328,14.54,2021-12-17 17:33:18.921875
1329,11.75,2021-12-17 17:33:18.937500
1330,9.12,2021-12-17 17:33:18.953125
1331,6.75,2021-12-17 17:33:18.968750
1332,4.7,2021-12-17 17:33:18.984375
1333,2.87,2021-12-17 17:33:19.000000
1334,1.1,2021-12-17 17:33:19.015625
1335,-0.83,2021-12-17 17:33:19.031250
1336,-3.13,2021-12-17 17:33:19.046875
1337,-5.92,2021-12-17 17:33:19.062500
1338,-9.13,2021-12-17 17:33:19.078125
1339,-12.53,2021-12-17 17:33:19.093750
1340,-15.71,2021-12-17 17:33:19.109375
1341,-18.19,2021-12-17 17:33:19.125000
1342,-19.38,2021-12-17 17:33:19.140625
1343,-18.79,2021-12-17 17:33:19.156250
1344,-16.11,2021-12-17 17:33:19.171875
1345,-11.41,2021-12-17 17:33:19.187500
1346,-5.24,2021-12-17 17:33:19.203125
1347,1.43,2021-12-17 17:33:19.218750
1348,7.38,2021-12-17 17:33:19.234375
1349,11.63,2021-12-17 17:33:19.250000
1350,13.56,2021-12-17 17:33:19.265625
1351,13.09,2021-12-17 17:33:19.281250
1352,10.59,2021-12-17 17:33:19.296875
1353,6.59,2021-12-17 17:33:19.312500
1354,1.54,2021-12-17 17:33:19.328125
1355,-4.14,2021-12-17 17:33:19.343750
1356,-10.02,2021-12-17 17:33:19.359375
1357,-15.48,2021-12-17 17:33:19.375000
1358,-19.73,2021-12-17 17:33:19.390625
1359,-22.04,2021-12-17 17:33:19.406250
1360,-22.07,2021-12-17 17:33:19.421875
1361,-20.09,2021-12-17 17:33:19.437500
1362,-16.78,2021-12-17 17:33:19.453125
1363,-12.81,2021-12-17 17:33:19.468750
1364,-8.25,2021-12-17 17:33:19.484375
1365,-2.27,2021-12-17 17:33:19.500000
1366,6.44,2021-12-17 17:33:19.515625
1367,18.9,2021-12-17 17:33:19.531250
1368,35.02,2021-12-17 17:33:19.546875
1369,53.18,2021-12-17 17:33:19.562500
1370,70.75,2021-12-17 17:33:19.578125
1371,85.02,2021-12-17 17:33:19.593750
1372,94.25,2021-12-17 17:33:19.609375
1373,98.18,2021-12-17 17:33:19.625000
1374,97.87,2021-12-17 17:33:19.640625
1375,94.86,2021-12-17 17:33:19.656250
1376,90.47,2021-12-17 17:33:19.671875
1377,85.43,2021-12-17 17:33:19.687500
1378,79.87,2021-12-17 17:33:19.703125
1379,73.92,2021-12-17 17:33:19.718750
1380,68.01,2021-12-17 17:33:19.734375
1381,62.94,2021-12-17 17:33:19.750000
1382,59.46,2021-12-17 17:33:19.765625
1383,57.94,2021-12-17 17:33:19.781250
1384,57.93,2021-12-17 17:33:19.796875
1385,58.25,2021-12-17 17:33:19.812500
1386,57.36,2021-12-17 17:33:19.828125
1387,53.88,2021-12-17 17:33:19.843750
1388,47.2,2021-12-17 17:33:19.859375
1389,37.6,2021-12-17 17:33:19.875000
1390,26.1,2021-12-17 17:33:19.890625
1391,13.91,2021-12-17 17:33:19.906250
1392,1.98,2021-12-17 17:33:19.921875
1393,-9.28,2021-12-17 17:33:19.937500
1394,-19.81,2021-12-17 17:33:19.953125
1395,-29.6,2021-12-17 17:33:19.968750
1396,-38.51,2021-12-17 17:33:19.984375
1397,-46.12,2021-12-17 17:33:20.000000
1398,-52.05,2021-12-17 17:33:20.015625
1399,-56.16,2021-12-17 17:33:20.031250
1400,-58.8,2021-12-17 17:33:20.046875
1401,-60.69,2021-12-17 17:33:20.062500
1402,-62.66,2021-12-17 17:33:20.078125
1403,-65.3,2021-12-17 17:33:20.093750
1404,-68.85,2021-12-17 17:33:20.109375
1405,-73.28,2021-12-17 17:33:20.125000
1406,-78.3,2021-12-17 17:33:20.140625
1407,-83.68,2021-12-17 17:33:20.156250
1408,-89.22,2021-12-17 17:33:20.171875
1409,-94.63,2021-12-17 17:33:20.187500
1410,-99.47,2021-12-17 17:33:20.203125
1411,-103.16,2021-12-17 17:33:20.218750
1412,-104.99,2021-12-17 17:33:20.234375
1413,-104.38,2021-12-17 17:33:20.250000
1414,-100.89,2021-12-17 17:33:20.265625
1415,-94.13,2021-12-17 17:33:20.281250
1416,-83.66,2021-12-17 17:33:20.296875
1417,-68.93,2021-12-17 17:33:20.312500
1418,-49.46,2021-12-17 17:33:20.328125
1419,-25.23,2021-12-17 17:33:20.343750
1420,2.89,2021-12-17 17:33:20.359375
1421,33.26,2021-12-17 17:33:20.375000
1422,63.74,2021-12-17 17:33:20.390625
1423,92.35,2021-12-17 17:33:20.406250
1424,117.96,2021-12-17 17:33:20.421875
1425,140.36,2021-12-17 17:33:20.437500
1426,160.21,2021-12-17 17:33:20.453125
1427,178.53,2021-12-17 17:33:20.468750
1428,196.17,2021-12-17 17:33:20.484375
1429,213.57,2021-12-17 17:33:20.500000
1430,230.86,2021-12-17 17:33:20.515625
1431,247.9,2021-12-17 17:33:20.531250
1432,264.08,2021-12-17 17:33:20.546875
1433,277.96,2021-12-17 17:33:20.562500
1434,287.06,2021-12-17 17:33:20.578125
1435,288.18,2021-12-17 17:33:20.593750
1436,278.39,2021-12-17 17:33:20.609375
1437,256.28,2021-12-17 17:33:20.625000
1438,223.0,2021-12-17 17:33:20.640625
1439,182.25,2021-12-17 17:33:20.656250
1440,139.19,2021-12-17 17:33:20.671875
1441,98.8,2021-12-17 17:33:20.687500
1442,64.45,2021-12-17 17:33:20.703125
1443,37.07,2021-12-17 17:33:20.718750
1444,15.72,2021-12-17 17:33:20.734375
1445,-1.61,2021-12-17 17:33:20.750000
1446,-16.99,2021-12-17 17:33:20.765625
1447,-32.11,2021-12-17 17:33:20.781250
1448,-48.08,2021-12-17 17:33:20.796875
1449,-65.39,2021-12-17 17:33:20.812500
1450,-83.89,2021-12-17 17:33:20.828125
1451,-102.64,2021-12-17 17:33:20.843750
1452,-120.5,2021-12-17 17:33:20.859375
1453,-136.41,2021-12-17 17:33:20.875000
1454,-149.79,2021-12-17 17:33:20.890625
1455,-160.53,2021-12-17 17:33:20.906250
1456,-168.47,2021-12-17 17:33:20.921875
1457,-173.08,2021-12-17 17:33:20.937500
1458,-173.5,2021-12-17 17:33:20.953125
1459,-169.11,2021-12-17 17:33:20.968750
1460,-160.09,2021-12-17 17:33:20.984375
1461,-147.78,2021-12-17 17:33:21.000000
1462,-134.29,2021-12-17 17:33:21.015625
1463,-121.58,2021-12-17 17:33:21.031250
1464,-110.72,2021-12-17 17:33:21.046875
1465,-101.73,2021-12-17 17:33:21.062500
1466,-93.96,2021-12-17 17:33:21.078125
1467,-86.81,2021-12-17 17:33:21.093750
1468,-80.19,2021-12-17 17:33:21.109375
1469,-74.46,2021-12-17 17:33:21.125000
1470,-69.98,2021-12-17 17:33:21.140625
1471,-66.69,2021-12-17 17:33:21.156250
1472,-64.05,2021-12-17 17:33:21.171875
1473,-61.21,2021-12-17 17:33:21.187500
1474,-57.48,2021-12-17 17:33:21.203125
1475,-52.68,2021-12-17 17:33:21.218750
1476,-47.31,2021-12-17 17:33:21.234375
1477,-42.25,2021-12-17 17:33:21.250000
1478,-38.35,2021-12-17 17:33:21.265625
1479,-35.95,2021-12-17 17:33:21.281250
1480,-34.64,2021-12-17 17:33:21.296875
1481,-33.36,2021-12-17 17:33:21.312500
1482,-30.95,2021-12-17 17:33:21.328125
1483,-26.75,2021-12-17 17:33:21.343750
1484,-20.93,2021-12-17 17:33:21.359375
1485,-14.49,2021-12-17 17:33:21.375000
1486,-8.77,2021-12-17 17:33:21.390625
1487,-4.83,2021-12-17 17:33:21.406250
1488,-3.15,2021-12-17 17:33:21.421875
1489,-3.5,2021-12-17 17:33:21.437500
1490,-5.19,2021-12-17 17:33:21.453125
1491,-7.4,2021-12-17 17:33:21.468750
1492,-9.45,2021-12-17 17:33:21.484375
1493,-10.82,2021-12-17 17:33:21.500000
1494,-11.21,2021-12-17 17:33:21.515625
1495,-10.46,2021-12-17 17:33:21.531250
1496,-8.58,2021-12-17 17:33:21.546875
1497,-5.65,2021-12-17 17:33:21.562500
1498,-1.87,2021-12-17 17:33:21.578125
1499,2.47,2021-12-17 17:33:21.593750
1500,7.0,2021-12-17 17:33:21.609375
1501,11.24,2021-12-17 17:33:21.625000
1502,14.77,2021-12-17 17:33:21.640625
1503,17.23,2021-12-17 17:33:21.656250
1504,18.53,2021-12-17 17:33:21.671875
1505,18.85,2021-12-17 17:33:21.687500
1506,18.64,2021-12-17 17:33:21.703125
1507,18.4,2021-12-17 17:33:21.718750
1508,18.48,2021-12-17 17:33:21.734375
1509,18.93,2021-12-17 17:33:21.750000
1510,19.55,2021-12-17 17:33:21.765625
1511,20.08,2021-12-17 17:33:21.781250
1512,20.28,2021-12-17 17:33:21.796875
1513,20.0,2021-12-17 17:33:21.812500
1514,19.27,2021-12-17 17:33:21.828125
1515,18.09,2021-12-17 17:33:21.843750
1516,16.57,2021-12-17 17:33:21.859375
1517,14.81,2021-12-17 17:33:21.875000
1518,12.94,2021-12-17 17:33:21.890625
1519,11.09,2021-12-17 17:33:21.906250
1520,9.33,2021-12-17 17:33:21.921875
1521,7.66,2021-12-17 17:33:21.937500
1522,6.02,2021-12-17 17:33:21.953125
1523,4.35,2021-12-17 17:33:21.968750
1524,2.69,2021-12-17 17:33:21.984375
1525,1.15,2021-12-17 17:33:22.000000
1526,-0.11,2021-12-17 17:33:22.015625
1527,-0.98,2021-12-17 17:33:22.031250
1528,-1.53,2021-12-17 17:33:22.046875
1529,-2.19,2021-12-17 17:33:22.062500
1530,-3.45,2021-12-17 17:33:22.078125
1531,-5.88,2021-12-17 17:33:22.093750
1532,-9.59,2021-12-17 17:33:22.109375
1533,-14.24,2021-12-17 17:33:22.125000
1534,-18.94,2021-12-17 17:33:22.140625
1535,-22.65,2021-12-17 17:33:22.156250
1536,-24.54,2021-12-17 17:33:22.171875
1537,-24.38,2021-12-17 17:33:22.187500
1538,-22.6,2021-12-17 17:33:22.203125
1539,-19.94,2021-12-17 17:33:22.218750
1540,-17.24,2021-12-17 17:33:22.234375
1541,-15.04,2021-12-17 17:33:22.250000
1542,-13.61,2021-12-17 17:33:22.265625
1543,-12.97,2021-12-17 17:33:22.281250
1544,-13.06,2021-12-17 17:33:22.296875
1545,-13.59,2021-12-17 17:33:22.312500
1546,-14.05,2021-12-17 17:33:22.328125
1547,-13.68,2021-12-17 17:33:22.343750
1548,-11.69,2021-12-17 17:33:22.359375
1549,-7.7,2021-12-17 17:33:22.375000
1550,-2.01,2021-12-17 17:33:22.390625
1551,4.32,2021-12-17 17:33:22.406250
1552,9.86,2021-12-17 17:33:22.421875
1553,13.33,2021-12-17 17:33:22.437500
1554,14.05,2021-12-17 17:33:22.453125
1555,12.13,2021-12-17 17:33:22.468750
1556,8.32,2021-12-17 17:33:22.484375
1557,3.64,2021-12-17 17:33:22.500000
1558,-1.07,2021-12-17 17:33:22.515625
1559,-5.24,2021-12-17 17:33:22.531250
1560,-8.5,2021-12-17 17:33:22.546875
1561,-10.65,2021-12-17 17:33:22.562500
1562,-11.44,2021-12-17 17:33:22.578125
1563,-10.61,2021-12-17 17:33:22.593750
1564,-8.06,2021-12-17 17:33:22.609375
1565,-3.99,2021-12-17 17:33:22.625000
1566,1.0,2021-12-17 17:33:22.640625
1567,5.85,2021-12-17 17:33:22.656250
1568,9.47,2021-12-17 17:33:22.671875
1569,10.98,2021-12-17 17:33:22.687500
1570,9.97,2021-12-17 17:33:22.703125
1571,6.71,2021-12-17 17:33:22.718750
1572,1.99,2021-12-17 17:33:22.734375
1573,-3.15,2021-12-17 17:33:22.750000
1574,-7.68,2021-12-17 17:33:22.765625
1575,-10.82,2021-12-17 17:33:22.781250
1576,-12.27,2021-12-17 17:33:22.796875
1577,-12.14,2021-12-17 17:33:22.812500
1578,-10.87,2021-12-17 17:33:22.828125
1579,-9.1,2021-12-17 17:33:22.843750
1580,-7.35,2021-12-17 17:33:22.859375
1581,-5.88,2021-12-17 17:33:22.875000
1582,-4.72,2021-12-17 17:33:22.890625
1583,-3.73,2021-12-17 17:33:22.906250
1584,-2.77,2021-12-17 17:33:22.921875
1585,-1.86,2021-12-17 17:33:22.937500
1586,-1.12,2021-12-17 17:33:22.953125
1587,-0.74,2021-12-17 17:33:22.968750
1588,-0.87,2021-12-17 17:33:22.984375
1589,-1.41,2021-12-17 17:33:23.000000
1590,-2.15,2021-12-17 17:33:23.015625
1591,-2.83,2021-12-17 17:33:23.031250
1592,-3.16,2021-12-17 17:33:23.046875
1593,-3.06,2021-12-17 17:33:23.062500
1594,-2.64,2021-12-17 17:33:23.078125
1595,-2.15,2021-12-17 17:33:23.093750
1596,-1.87,2021-12-17 17:33:23.109375
1597,-2.01,2021-12-17 17:33:23.125000
1598,-2.49,2021-12-17 17:33:23.140625
1599,-3.12,2021-12-17 17:33:23.156250
1600,-3.65,2021-12-17 17:33:23.171875
1601,-3.94,2021-12-17 17:33:23.187500
1602,-4.03,2021-12-17 17:33:23.203125
1603,-4.11,2021-12-17 17:33:23.218750
1604,-4.45,2021-12-17 17:33:23.234375
1605,-5.35,2021-12-17 17:33:23.250000
1606,-7.0,2021-12-17 17:33:23.265625
1607,-9.36,2021-12-17 17:33:23.281250
1608,-12.05,2021-12-17 17:33:23.296875
1609,-14.39,2021-12-17 17:33:23.312500
1610,-15.34,2021-12-17 17:33:23.328125
1611,-13.98,2021-12-17 17:33:23.343750
1612,-9.74,2021-12-17 17:33:23.359375
1613,-2.84,2021-12-17 17:33:23.375000
1614,5.66,2021-12-17 17:33:23.390625
1615,14.03,2021-12-17 17:33:23.406250
1616,20.43,2021-12-17 17:33:23.421875
1617,23.57,2021-12-17 17:33:23.437500
1618,23.0,2021-12-17 17:33:23.453125
1619,19.37,2021-12-17 17:33:23.468750
1620,14.0,2021-12-17 17:33:23.484375
1621,8.43,2021-12-17 17:33:23.500000
1622,3.88,2021-12-17 17:33:23.515625
1623,1.03,2021-12-17 17:33:23.531250
1624,0.0,2021-12-17 17:33:23.546875
1625,0.56,2021-12-17 17:33:23.562500
1626,2.35,2021-12-17 17:33:23.578125
1627,5.02,2021-12-17 17:33:23.593750
1628,8.2,2021-12-17 17:33:23.609375
1629,11.45,2021-12-17 17:33:23.625000
1630,14.28,2021-12-17 17:33:23.640625
1631,16.27,2021-12-17 17:33:23.656250
1632,17.22,2021-12-17 17:33:23.671875
1633,17.23,2021-12-17 17:33:23.687500
1634,16.62,2021-12-17 17:33:23.703125
1635,15.74,2021-12-17 17:33:23.718750
1636,14.79,2021-12-17 17:33:23.734375
1637,13.83,2021-12-17 17:33:23.750000
1638,12.85,2021-12-17 17:33:23.765625
1639,11.86,2021-12-17 17:33:23.781250
1640,10.94,2021-12-17 17:33:23.796875
1641,10.14,2021-12-17 17:33:23.812500
1642,9.3,2021-12-17 17:33:23.828125
1643,8.14,2021-12-17 17:33:23.843750
1644,6.38,2021-12-17 17:33:23.859375
1645,3.93,2021-12-17 17:33:23.875000
1646,1.04,2021-12-17 17:33:23.890625
1647,-1.8,2021-12-17 17:33:23.906250
1648,-4.03,2021-12-17 17:33:23.921875
1649,-5.28,2021-12-17 17:33:23.937500
1650,-5.45,2021-12-17 17:33:23.953125
1651,-4.76,2021-12-17 17:33:23.968750
1652,-3.64,2021-12-17 17:33:23.984375
1653,-2.59,2021-12-17 17:33:24.000000
1654,-1.99,2021-12-17 17:33:24.015625
1655,-2.04,2021-12-17 17:33:24.031250
1656,-2.63,2021-12-17 17:33:24.046875
1657,-3.43,2021-12-17 17:33:24.062500
1658,-4.05,2021-12-17 17:33:24.078125
1659,-4.26,2021-12-17 17:33:24.093750
1660,-4.06,2021-12-17 17:33:24.109375
1661,-3.79,2021-12-17 17:33:24.125000
1662,-3.81,2021-12-17 17:33:24.140625
1663,-4.31,2021-12-17 17:33:24.156250
1664,-5.15,2021-12-17 17:33:24.171875
1665,-5.94,2021-12-17 17:33:24.187500
1666,-6.29,2021-12-17 17:33:24.203125
1667,-6.16,2021-12-17 17:33:24.218750
1668,-5.96,2021-12-17 17:33:24.234375
1669,-6.35,2021-12-17 17:33:24.250000
1670,-7.88,2021-12-17 17:33:24.265625
1671,-10.61,2021-12-17 17:33:24.281250
1672,-13.95,2021-12-17 17:33:24.296875
1673,-16.79,2021-12-17 17:33:24.312500
1674,-17.94,2021-12-17 17:33:24.328125
1675,-16.54,2021-12-17 17:33:24.343750
1676,-12.35,2021-12-17 17:33:24.359375
1677,-5.77,2021-12-17 17:33:24.375000
1678,2.2,2021-12-17 17:33:24.390625
1679,10.31,2021-12-17 17:33:24.406250
1680,17.25,2021-12-17 17:33:24.421875
1681,21.9,2021-12-17 17:33:24.437500
1682,23.6,2021-12-17 17:33:24.453125
1683,22.3,2021-12-17 17:33:24.468750
1684,18.56,2021-12-17 17:33:24.484375
1685,13.42,2021-12-17 17:33:24.500000
1686,8.09,2021-12-17 17:33:24.515625
1687,3.6,2021-12-17 17:33:24.531250
1688,0.6,2021-12-17 17:33:24.546875
1689,-0.71,2021-12-17 17:33:24.562500
1690,-0.46,2021-12-17 17:33:24.578125
1691,0.95,2021-12-17 17:33:24.593750
1692,3.08,2021-12-17 17:33:24.609375
1693,5.33,2021-12-17 17:33:24.625000
1694,7.09,2021-12-17 17:33:24.640625
1695,7.82,2021-12-17 17:33:24.656250
1696,7.34,2021-12-17 17:33:24.671875
1697,5.92,2021-12-17 17:33:24.687500
1698,4.24,2021-12-17 17:33:24.703125
1699,3.07,2021-12-17 17:33:24.718750
1700,2.92,2021-12-17 17:33:24.734375
1701,3.75,2021-12-17 17:33:24.750000
1702,5.01,2021-12-17 17:33:24.765625
1703,5.96,2021-12-17 17:33:24.781250
1704,6.06,2021-12-17 17:33:24.796875
1705,5.25,2021-12-17 17:33:24.812500
1706,3.92,2021-12-17 17:33:24.828125
1707,2.68,2021-12-17 17:33:24.843750
1708,1.95,2021-12-17 17:33:24.859375
1709,1.84,2021-12-17 17:33:24.875000
1710,2.11,2021-12-17 17:33:24.890625
1711,2.39,2021-12-17 17:33:24.906250
1712,2.48,2021-12-17 17:33:24.921875
1713,2.43,2021-12-17 17:33:24.937500
1714,2.51,2021-12-17 17:33:24.953125
1715,2.93,2021-12-17 17:33:24.968750
1716,3.75,2021-12-17 17:33:24.984375
1717,4.67,2021-12-17 17:33:25.000000
1718,5.29,2021-12-17 17:33:25.015625
1719,5.23,2021-12-17 17:33:25.031250
1720,4.39,2021-12-17 17:33:25.046875
1721,3.01,2021-12-17 17:33:25.062500
1722,1.44,2021-12-17 17:33:25.078125
1723,0.05,2021-12-17 17:33:25.093750
1724,-1.01,2021-12-17 17:33:25.109375
1725,-1.88,2021-12-17 17:33:25.125000
1726,-2.92,2021-12-17 17:33:25.140625
1727,-4.47,2021-12-17 17:33:25.156250
1728,-6.68,2021-12-17 17:33:25.171875
1729,-9.36,2021-12-17 17:33:25.187500
1730,-12.11,2021-12-17 17:33:25.203125
1731,-14.48,2021-12-17 17:33:25.218750
1732,-16.12,2021-12-17 17:33:25.234375
1733,-16.96,2021-12-17 17:33:25.250000
1734,-17.09,2021-12-17 17:33:25.265625
1735,-16.69,2021-12-17 17:33:25.281250
1736,-15.91,2021-12-17 17:33:25.296875
1737,-14.87,2021-12-17 17:33:25.312500
1738,-13.83,2021-12-17 17:33:25.328125
1739,-13.14,2021-12-17 17:33:25.343750
1740,-13.25,2021-12-17 17:33:25.359375
1741,-14.55,2021-12-17 17:33:25.375000
1742,-17.01,2021-12-17 17:33:25.390625
1743,-20.17,2021-12-17 17:33:25.406250
1744,-23.13,2021-12-17 17:33:25.421875
1745,-24.94,2021-12-17 17:33:25.437500
1746,-24.89,2021-12-17 17:33:25.453125
1747,-22.8,2021-12-17 17:33:25.468750
1748,-19.06,2021-12-17 17:33:25.484375
1749,-14.64,2021-12-17 17:33:25.500000
1750,-10.84,2021-12-17 17:33:25.515625
1751,-9.0,2021-12-17 17:33:25.531250
1752,-10.18,2021-12-17 17:33:25.546875
1753,-14.71,2021-12-17 17:33:25.562500
1754,-22.11,2021-12-17 17:33:25.578125
1755,-31.05,2021-12-17 17:33:25.593750
1756,-39.81,2021-12-17 17:33:25.609375
1757,-46.92,2021-12-17 17:33:25.625000
1758,-51.66,2021-12-17 17:33:25.640625
1759,-54.35,2021-12-17 17:33:25.656250
1760,-56.0,2021-12-17 17:33:25.671875
1761,-57.84,2021-12-17 17:33:25.687500
1762,-60.58,2021-12-17 17:33:25.703125
1763,-64.22,2021-12-17 17:33:25.718750
1764,-68.16,2021-12-17 17:33:25.734375
1765,-71.7,2021-12-17 17:33:25.750000
1766,-74.42,2021-12-17 17:33:25.765625
1767,-76.37,2021-12-17 17:33:25.781250
1768,-77.94,2021-12-17 17:33:25.796875
1769,-79.54,2021-12-17 17:33:25.812500
1770,-81.19,2021-12-17 17:33:25.828125
1771,-82.63,2021-12-17 17:33:25.843750
1772,-83.13,2021-12-17 17:33:25.859375
1773,-81.7,2021-12-17 17:33:25.875000
1774,-77.23,2021-12-17 17:33:25.890625
1775,-68.5,2021-12-17 17:33:25.906250
1776,-54.15,2021-12-17 17:33:25.921875
1777,-32.94,2021-12-17 17:33:25.937500
1778,-4.43,2021-12-17 17:33:25.953125
1779,30.1,2021-12-17 17:33:25.968750
1780,67.11,2021-12-17 17:33:25.984375
1781,101.3,2021-12-17 17:33:26.000000
1782,127.16,2021-12-17 17:33:26.015625
1783,141.06,2021-12-17 17:33:26.031250
1784,142.77,2021-12-17 17:33:26.046875
1785,135.46,2021-12-17 17:33:26.062500
1786,124.16,2021-12-17 17:33:26.078125
1787,113.52,2021-12-17 17:33:26.093750
1788,106.05,2021-12-17 17:33:26.109375
1789,101.66,2021-12-17 17:33:26.125000
1790,98.66,2021-12-17 17:33:26.140625
1791,95.21,2021-12-17 17:33:26.156250
1792,90.58,2021-12-17 17:33:26.171875
1793,85.17,2021-12-17 17:33:26.187500
1794,79.74,2021-12-17 17:33:26.203125
1795,74.65,2021-12-17 17:33:26.218750
1796,69.49,2021-12-17 17:33:26.234375
1797,63.46,2021-12-17 17:33:26.250000
1798,56.17,2021-12-17 17:33:26.265625
1799,47.98,2021-12-17 17:33:26.281250
1800,39.89,2021-12-17 17:33:26.296875
1801,32.96,2021-12-17 17:33:26.312500
1802,28.01,2021-12-17 17:33:26.328125
1803,24.98,2021-12-17 17:33:26.343750
1804,23.16,2021-12-17 17:33:26.359375
1805,21.43,2021-12-17 17:33:26.375000
1806,18.69,2021-12-17 17:33:26.390625
1807,14.26,2021-12-17 17:33:26.406250
1808,8.11,2021-12-17 17:33:26.421875
1809,0.92,2021-12-17 17:33:26.437500
1810,-6.15,2021-12-17 17:33:26.453125
1811,-11.79,2021-12-17 17:33:26.468750
1812,-15.14,2021-12-17 17:33:26.484375
1813,-16.18,2021-12-17 17:33:26.500000
1814,-15.96,2021-12-17 17:33:26.515625
1815,-16.05,2021-12-17 17:33:26.531250
1816,-17.73,2021-12-17 17:33:26.546875
1817,-21.16,2021-12-17 17:33:26.562500
1818,-25.2,2021-12-17 17:33:26.578125
1819,-27.9,2021-12-17 17:33:26.593750
1820,-27.53,2021-12-17 17:33:26.609375
1821,-23.56,2021-12-17 17:33:26.625000
1822,-16.85,2021-12-17 17:33:26.640625
1823,-9.22,2021-12-17 17:33:26.656250
1824,-2.55,2021-12-17 17:33:26.671875
1825,1.98,2021-12-17 17:33:26.687500
1826,4.13,2021-12-17 17:33:26.703125
1827,4.22,2021-12-17 17:33:26.718750
1828,2.81,2021-12-17 17:33:26.734375
1829,0.55,2021-12-17 17:33:26.750000
1830,-1.7,2021-12-17 17:33:26.765625
1831,-2.71,2021-12-17 17:33:26.781250
1832,-1.19,2021-12-17 17:33:26.796875
1833,3.74,2021-12-17 17:33:26.812500
1834,11.9,2021-12-17 17:33:26.828125
1835,21.95,2021-12-17 17:33:26.843750
1836,31.92,2021-12-17 17:33:26.859375
1837,40.12,2021-12-17 17:33:26.875000
1838,45.86,2021-12-17 17:33:26.890625
1839,49.68,2021-12-17 17:33:26.906250
1840,52.74,2021-12-17 17:33:26.921875
1841,56.2,2021-12-17 17:33:26.937500
1842,60.77,2021-12-17 17:33:26.953125
1843,66.67,2021-12-17 17:33:26.968750
1844,73.81,2021-12-17 17:33:26.984375
1845,81.55,2021-12-17 17:33:27.000000
1846,88.25,2021-12-17 17:33:27.015625
1847,91.15,2021-12-17 17:33:27.031250
1848,86.99,2021-12-17 17:33:27.046875
1849,73.49,2021-12-17 17:33:27.062500
1850,50.99,2021-12-17 17:33:27.078125
1851,23.04,2021-12-17 17:33:27.093750
1852,-4.57,2021-12-17 17:33:27.109375
1853,-26.09,2021-12-17 17:33:27.125000
1854,-38.22,2021-12-17 17:33:27.140625
1855,-41.19,2021-12-17 17:33:27.156250
1856,-38.05,2021-12-17 17:33:27.171875
1857,-32.69,2021-12-17 17:33:27.187500
1858,-27.82,2021-12-17 17:33:27.203125
1859,-24.23,2021-12-17 17:33:27.218750
1860,-21.29,2021-12-17 17:33:27.234375
1861,-18.31,2021-12-17 17:33:27.250000
1862,-15.4,2021-12-17 17:33:27.265625
1863,-13.49,2021-12-17 17:33:27.281250
1864,-13.57,2021-12-17 17:33:27.296875
1865,-15.76,2021-12-17 17:33:27.312500
1866,-19.12,2021-12-17 17:33:27.328125
1867,-22.12,2021-12-17 17:33:27.343750
1868,-23.37,2021-12-17 17:33:27.359375
1869,-22.37,2021-12-17 17:33:27.375000
1870,-19.8,2021-12-17 17:33:27.390625
1871,-17.03,2021-12-17 17:33:27.406250
1872,-15.47,2021-12-17 17:33:27.421875
1873,-15.9,2021-12-17 17:33:27.437500
1874,-18.25,2021-12-17 17:33:27.453125
1875,-21.72,2021-12-17 17:33:27.468750
1876,-25.16,2021-12-17 17:33:27.484375
1877,-27.5,2021-12-17 17:33:27.500000
1878,-28.06,2021-12-17 17:33:27.515625
1879,-26.67,2021-12-17 17:33:27.531250
1880,-23.6,2021-12-17 17:33:27.546875
1881,-19.49,2021-12-17 17:33:27.562500
1882,-15.16,2021-12-17 17:33:27.578125
1883,-11.44,2021-12-17 17:33:27.593750
1884,-8.99,2021-12-17 17:33:27.609375
1885,-8.12,2021-12-17 17:33:27.625000
1886,-8.82,2021-12-17 17:33:27.640625
1887,-10.87,2021-12-17 17:33:27.656250
1888,-13.95,2021-12-17 17:33:27.671875
1889,-17.68,2021-12-17 17:33:27.687500
1890,-21.61,2021-12-17 17:33:27.703125
1891,-25.1,2021-12-17 17:33:27.718750
1892,-27.39,2021-12-17 17:33:27.734375
1893,-27.78,2021-12-17 17:33:27.750000
1894,-25.99,2021-12-17 17:33:27.765625
1895,-22.28,2021-12-17 17:33:27.781250
1896,-17.54,2021-12-17 17:33:27.796875
1897,-13.01,2021-12-17 17:33:27.812500
1898,-9.87,2021-12-17 17:33:27.828125
1899,-8.8,2021-12-17 17:33:27.843750
1900,-9.85,2021-12-17 17:33:27.859375
1901,-12.44,2021-12-17 17:33:27.875000
1902,-15.59,2021-12-17 17:33:27.890625
1903,-18.24,2021-12-17 17:33:27.906250
1904,-19.58,2021-12-17 17:33:27.921875
1905,-19.21,2021-12-17 17:33:27.937500
1906,-17.26,2021-12-17 17:33:27.953125
1907,-14.32,2021-12-17 17:33:27.968750
1908,-11.13,2021-12-17 17:33:27.984375
1909,-8.31,2021-12-17 17:33:28.000000
1910,-6.03,2021-12-17 17:33:28.015625
1911,-4.05,2021-12-17 17:33:28.031250
1912,-1.82,2021-12-17 17:33:28.046875
1913,1.14,2021-12-17 17:33:28.062500
1914,5.2,2021-12-17 17:33:28.078125
1915,10.42,2021-12-17 17:33:28.093750
1916,16.62,2021-12-17 17:33:28.109375
1917,23.59,2021-12-17 17:33:28.125000
1918,30.93,2021-12-17 17:33:28.140625
1919,38.19,2021-12-17 17:33:28.156250
1920,44.76,2021-12-17 17:33:28.171875
1921,50.16,2021-12-17 17:33:28.187500
1922,54.28,2021-12-17 17:33:28.203125
1923,57.58,2021-12-17 17:33:28.218750
1924,60.95,2021-12-17 17:33:28.234375
1925,65.38,2021-12-17 17:33:28.250000
1926,71.49,2021-12-17 17:33:28.265625
1927,79.15,2021-12-17 17:33:28.281250
1928,87.58,2021-12-17 17:33:28.296875
1929,95.69,2021-12-17 17:33:28.312500
1930,102.46,2021-12-17 17:33:28.328125
1931,107.28,2021-12-17 17:33:28.343750
1932,109.78,2021-12-17 17:33:28.359375
1933,109.65,2021-12-17 17:33:28.375000
1934,106.42,2021-12-17 17:33:28.390625
1935,99.66,2021-12-17 17:33:28.406250
1936,89.07,2021-12-17 17:33:28.421875
1937,74.85,2021-12-17 17:33:28.437500
1938,57.9,2021-12-17 17:33:28.453125
1939,39.55,2021-12-17 17:33:28.468750
1940,21.3,2021-12-17 17:33:28.484375
1941,4.39,2021-12-17 17:33:28.500000
1942,-10.42,2021-12-17 17:33:28.515625
1943,-22.94,2021-12-17 17:33:28.531250
1944,-33.29,2021-12-17 17:33:28.546875
1945,-41.89,2021-12-17 17:33:28.562500
1946,-49.13,2021-12-17 17:33:28.578125
1947,-55.24,2021-12-17 17:33:28.593750
1948,-60.29,2021-12-17 17:33:28.609375
1949,-64.02,2021-12-17 17:33:28.625000
1950,-66.14,2021-12-17 17:33:28.640625
1951,-66.4,2021-12-17 17:33:28.656250
1952,-64.84,2021-12-17 17:33:28.671875
1953,-61.81,2021-12-17 17:33:28.687500
1954,-57.91,2021-12-17 17:33:28.703125
1955,-53.73,2021-12-17 17:33:28.718750
1956,-49.68,2021-12-17 17:33:28.734375
1957,-46.05,2021-12-17 17:33:28.750000
1958,-42.99,2021-12-17 17:33:28.765625
1959,-40.68,2021-12-17 17:33:28.781250
1960,-39.26,2021-12-17 17:33:28.796875
1961,-38.77,2021-12-17 17:33:28.812500
1962,-38.95,2021-12-17 17:33:28.828125
1963,-39.15,2021-12-17 17:33:28.843750
1964,-38.62,2021-12-17 17:33:28.859375
1965,-36.65,2021-12-17 17:33:28.875000
1966,-32.94,2021-12-17 17:33:28.890625
1967,-27.7,2021-12-17 17:33:28.906250
1968,-21.5,2021-12-17 17:33:28.921875
1969,-15.17,2021-12-17 17:33:28.937500
1970,-9.39,2021-12-17 17:33:28.953125
1971,-4.65,2021-12-17 17:33:28.968750
1972,-1.1,2021-12-17 17:33:28.984375
1973,1.38,2021-12-17 17:33:29.000000
1974,3.03,2021-12-17 17:33:29.015625
1975,4.23,2021-12-17 17:33:29.031250
1976,5.28,2021-12-17 17:33:29.046875
1977,6.43,2021-12-17 17:33:29.062500
1978,7.75,2021-12-17 17:33:29.078125
1979,9.18,2021-12-17 17:33:29.093750
1980,10.48,2021-12-17 17:33:29.109375
1981,11.37,2021-12-17 17:33:29.125000
1982,11.68,2021-12-17 17:33:29.140625
1983,11.42,2021-12-17 17:33:29.156250
1984,10.84,2021-12-17 17:33:29.171875
1985,10.37,2021-12-17 17:33:29.187500
1986,10.44,2021-12-17 17:33:29.203125
1987,11.2,2021-12-17 17:33:29.218750
1988,12.42,2021-12-17 17:33:29.234375
1989,13.54,2021-12-17 17:33:29.250000
1990,13.86,2021-12-17 17:33:29.265625
1991,12.91,2021-12-17 17:33:29.281250
1992,10.58,2021-12-17 17:33:29.296875
1993,7.29,2021-12-17 17:33:29.312500
1994,3.81,2021-12-17 17:33:29.328125
1995,1.08,2021-12-17 17:33:29.343750
1996,-0.25,2021-12-17 17:33:29.359375
1997,-0.03,2021-12-17 17:33:29.375000
1998,1.26,2021-12-17 17:33:29.390625
1999,2.73,2021-12-17 17:33:29.406250
2000,3.61,2021-12-17 17:33:29.421875
2001,3.49,2021-12-17 17:33:29.437500
2002,2.63,2021-12-17 17:33:29.453125
2003,1.65,2021-12-17 17:33:29.468750
2004,1.3,2021-12-17 17:33:29.484375
2005,2.02,2021-12-17 17:33:29.500000
2006,3.85,2021-12-17 17:33:29.515625
2007,6.54,2021-12-17 17:33:29.531250
2008,9.72,2021-12-17 17:33:29.546875
2009,13.04,2021-12-17 17:33:29.562500
2010,15.9,2021-12-17 17:33:29.578125
2011,17.54,2021-12-17 17:33:29.593750
2012,17.15,2021-12-17 17:33:29.609375
2013,14.28,2021-12-17 17:33:29.625000
2014,9.33,2021-12-17 17:33:29.640625
2015,3.6,2021-12-17 17:33:29.656250
2016,-1.09,2021-12-17 17:33:29.671875
2017,-3.18,2021-12-17 17:33:29.687500
2018,-1.97,2021-12-17 17:33:29.703125
2019,2.03,2021-12-17 17:33:29.718750
2020,7.53,2021-12-17 17:33:29.734375
2021,13.16,2021-12-17 17:33:29.750000
2022,18.03,2021-12-17 17:33:29.765625
2023,22.02,2021-12-17 17:33:29.781250
2024,25.38,2021-12-17 17:33:29.796875
2025,28.41,2021-12-17 17:33:29.812500
2026,30.98,2021-12-17 17:33:29.828125
2027,32.69,2021-12-17 17:33:29.843750
2028,33.26,2021-12-17 17:33:29.859375
2029,32.8,2021-12-17 17:33:29.875000
2030,32.04,2021-12-17 17:33:29.890625
2031,32.04,2021-12-17 17:33:29.906250
2032,33.8,2021-12-17 17:33:29.921875
2033,37.75,2021-12-17 17:33:29.937500
2034,43.78,2021-12-17 17:33:29.953125
2035,51.39,2021-12-17 17:33:29.968750
2036,59.9,2021-12-17 17:33:29.984375
2037,68.27,2021-12-17 17:33:30.000000
2038,74.75,2021-12-17 17:33:30.015625
2039,76.79,2021-12-17 17:33:30.031250
2040,71.71,2021-12-17 17:33:30.046875
2041,58.02,2021-12-17 17:33:30.062500
2042,36.72,2021-12-17 17:33:30.078125
2043,11.55,2021-12-17 17:33:30.093750
2044,-12.15,2021-12-17 17:33:30.109375
2045,-29.56,2021-12-17 17:33:30.125000
2046,-38.44,2021-12-17 17:33:30.140625
2047,-39.74,2021-12-17 17:33:30.156250
2048,-36.65,2021-12-17 17:33:30.171875
2049,-32.65,2021-12-17 17:33:30.187500
2050,-29.74,2021-12-17 17:33:30.203125
2051,-27.9,2021-12-17 17:33:30.218750
2052,-25.89,2021-12-17 17:33:30.234375
2053,-22.69,2021-12-17 17:33:30.250000
2054,-18.33,2021-12-17 17:33:30.265625
2055,-13.93,2021-12-17 17:33:30.281250
2056,-10.91,2021-12-17 17:33:30.296875
2057,-10.02,2021-12-17 17:33:30.312500
2058,-10.91,2021-12-17 17:33:30.328125
2059,-12.43,2021-12-17 17:33:30.343750
2060,-13.16,2021-12-17 17:33:30.359375
2061,-12.15,2021-12-17 17:33:30.375000
2062,-9.49,2021-12-17 17:33:30.390625
2063,-6.05,2021-12-17 17:33:30.406250
2064,-3.15,2021-12-17 17:33:30.421875
2065,-1.85,2021-12-17 17:33:30.437500
2066,-2.45,2021-12-17 17:33:30.453125
2067,-4.38,2021-12-17 17:33:30.468750
2068,-6.57,2021-12-17 17:33:30.484375
2069,-7.99,2021-12-17 17:33:30.500000
2070,-8.18,2021-12-17 17:33:30.515625
2071,-7.36,2021-12-17 17:33:30.531250
2072,-6.2,2021-12-17 17:33:30.546875
2073,-5.4,2021-12-17 17:33:30.562500
2074,-5.25,2021-12-17 17:33:30.578125
2075,-5.69,2021-12-17 17:33:30.593750
2076,-6.39,2021-12-17 17:33:30.609375
2077,-7.12,2021-12-17 17:33:30.625000
2078,-7.87,2021-12-17 17:33:30.640625
2079,-8.71,2021-12-17 17:33:30.656250
2080,-9.66,2021-12-17 17:33:30.671875
2081,-10.47,2021-12-17 17:33:30.687500
2082,-10.72,2021-12-17 17:33:30.703125
2083,-9.98,2021-12-17 17:33:30.718750
2084,-8.13,2021-12-17 17:33:30.734375
2085,-5.41,2021-12-17 17:33:30.750000
2086,-2.4,2021-12-17 17:33:30.765625
2087,0.19,2021-12-17 17:33:30.781250
2088,1.87,2021-12-17 17:33:30.796875
2089,2.45,2021-12-17 17:33:30.812500
2090,2.1,2021-12-17 17:33:30.828125
2091,1.25,2021-12-17 17:33:30.843750
2092,0.36,2021-12-17 17:33:30.859375
2093,-0.21,2021-12-17 17:33:30.875000
2094,-0.25,2021-12-17 17:33:30.890625
2095,0.31,2021-12-17 17:33:30.906250
2096,1.46,2021-12-17 17:33:30.921875
2097,3.19,2021-12-17 17:33:30.937500
2098,5.49,2021-12-17 17:33:30.953125
2099,8.28,2021-12-17 17:33:30.968750
2100,11.33,2021-12-17 17:33:30.984375
2101,14.37,2021-12-17 17:33:31.000000
2102,17.01,2021-12-17 17:33:31.015625
2103,18.99,2021-12-17 17:33:31.031250
2104,20.31,2021-12-17 17:33:31.046875
2105,21.22,2021-12-17 17:33:31.062500
2106,22.12,2021-12-17 17:33:31.078125
2107,23.31,2021-12-17 17:33:31.093750
2108,24.88,2021-12-17 17:33:31.109375
2109,26.65,2021-12-17 17:33:31.125000
2110,28.26,2021-12-17 17:33:31.140625
2111,29.4,2021-12-17 17:33:31.156250
2112,29.82,2021-12-17 17:33:31.171875
2113,29.53,2021-12-17 17:33:31.187500
2114,28.64,2021-12-17 17:33:31.203125
2115,27.27,2021-12-17 17:33:31.218750
2116,25.49,2021-12-17 17:33:31.234375
2117,23.33,2021-12-17 17:33:31.250000
2118,20.9,2021-12-17 17:33:31.265625
2119,18.35,2021-12-17 17:33:31.281250
2120,16.06,2021-12-17 17:33:31.296875
2121,14.33,2021-12-17 17:33:31.312500
2122,13.46,2021-12-17 17:33:31.328125
2123,13.42,2021-12-17 17:33:31.343750
2124,13.92,2021-12-17 17:33:31.359375
2125,14.46,2021-12-17 17:33:31.375000
2126,14.45,2021-12-17 17:33:31.390625
2127,13.47,2021-12-17 17:33:31.406250
2128,11.31,2021-12-17 17:33:31.421875
2129,8.09,2021-12-17 17:33:31.437500
2130,4.13,2021-12-17 17:33:31.453125
2131,-0.17,2021-12-17 17:33:31.468750
2132,-4.49,2021-12-17 17:33:31.484375
2133,-8.67,2021-12-17 17:33:31.500000
2134,-12.74,2021-12-17 17:33:31.515625
2135,-16.92,2021-12-17 17:33:31.531250
2136,-21.47,2021-12-17 17:33:31.546875
2137,-26.66,2021-12-17 17:33:31.562500
2138,-32.65,2021-12-17 17:33:31.578125
2139,-39.44,2021-12-17 17:33:31.593750
2140,-46.96,2021-12-17 17:33:31.609375
2141,-54.93,2021-12-17 17:33:31.625000
2142,-62.91,2021-12-17 17:33:31.640625
2143,-70.13,2021-12-17 17:33:31.656250
2144,-75.7,2021-12-17 17:33:31.671875
2145,-78.69,2021-12-17 17:33:31.687500
2146,-78.41,2021-12-17 17:33:31.703125
2147,-74.71,2021-12-17 17:33:31.718750
2148,-68.05,2021-12-17 17:33:31.734375
2149,-59.47,2021-12-17 17:33:31.750000
2150,-50.22,2021-12-17 17:33:31.765625
2151,-41.56,2021-12-17 17:33:31.781250
2152,-34.33,2021-12-17 17:33:31.796875
2153,-28.95,2021-12-17 17:33:31.812500
2154,-25.4,2021-12-17 17:33:31.828125
2155,-23.36,2021-12-17 17:33:31.843750
2156,-22.29,2021-12-17 17:33:31.859375
2157,-21.61,2021-12-17 17:33:31.875000
2158,-20.75,2021-12-17 17:33:31.890625
2159,-19.23,2021-12-17 17:33:31.906250
2160,-16.77,2021-12-17 17:33:31.921875
2161,-13.39,2021-12-17 17:33:31.937500
2162,-9.46,2021-12-17 17:33:31.953125
2163,-5.57,2021-12-17 17:33:31.968750
2164,-2.38,2021-12-17 17:33:31.984375
2165,-0.34,2021-12-17 17:33:32.000000
2166,0.51,2021-12-17 17:33:32.015625
2167,0.51,2021-12-17 17:33:32.031250
2168,0.23,2021-12-17 17:33:32.046875
2169,0.22,2021-12-17 17:33:32.062500
2170,0.71,2021-12-17 17:33:32.078125
2171,1.61,2021-12-17 17:33:32.093750
2172,2.6,2021-12-17 17:33:32.109375
2173,3.37,2021-12-17 17:33:32.125000
2174,3.81,2021-12-17 17:33:32.140625
2175,4.08,2021-12-17 17:33:32.156250
2176,4.44,2021-12-17 17:33:32.171875
2177,5.06,2021-12-17 17:33:32.187500
2178,5.9,2021-12-17 17:33:32.203125
2179,6.72,2021-12-17 17:33:32.218750
2180,7.34,2021-12-17 17:33:32.234375
2181,7.66,2021-12-17 17:33:32.250000
2182,7.83,2021-12-17 17:33:32.265625
2183,8.04,2021-12-17 17:33:32.281250
2184,8.37,2021-12-17 17:33:32.296875
2185,8.62,2021-12-17 17:33:32.312500
2186,8.43,2021-12-17 17:33:32.328125
2187,7.47,2021-12-17 17:33:32.343750
2188,5.74,2021-12-17 17:33:32.359375
2189,3.63,2021-12-17 17:33:32.375000
2190,1.77,2021-12-17 17:33:32.390625
2191,0.72,2021-12-17 17:33:32.406250
2192,0.66,2021-12-17 17:33:32.421875
2193,1.34,2021-12-17 17:33:32.437500
2194,2.2,2021-12-17 17:33:32.453125
2195,2.6,2021-12-17 17:33:32.468750
2196,2.08,2021-12-17 17:33:32.484375
2197,0.39,2021-12-17 17:33:32.500000
2198,-2.45,2021-12-17 17:33:32.515625
2199,-6.16,2021-12-17 17:33:32.531250
2200,-10.26,2021-12-17 17:33:32.546875
2201,-14.12,2021-12-17 17:33:32.562500
2202,-17.05,2021-12-17 17:33:32.578125
2203,-18.57,2021-12-17 17:33:32.593750
2204,-18.63,2021-12-17 17:33:32.609375
2205,-17.65,2021-12-17 17:33:32.625000
2206,-16.42,2021-12-17 17:33:32.640625
2207,-15.77,2021-12-17 17:33:32.656250
2208,-16.2,2021-12-17 17:33:32.671875
2209,-17.71,2021-12-17 17:33:32.687500
2210,-19.72,2021-12-17 17:33:32.703125
2211,-21.32,2021-12-17 17:33:32.718750
2212,-21.58,2021-12-17 17:33:32.734375
2213,-19.85,2021-12-17 17:33:32.750000
2214,-16.02,2021-12-17 17:33:32.765625
2215,-10.58,2021-12-17 17:33:32.781250
2216,-4.42,2021-12-17 17:33:32.796875
2217,1.4,2021-12-17 17:33:32.812500
2218,5.85,2021-12-17 17:33:32.828125
2219,8.28,2021-12-17 17:33:32.843750
2220,8.46,2021-12-17 17:33:32.859375
2221,6.67,2021-12-17 17:33:32.875000
2222,3.54,2021-12-17 17:33:32.890625
2223,-0.06,2021-12-17 17:33:32.906250
2224,-3.26,2021-12-17 17:33:32.921875
2225,-5.39,2021-12-17 17:33:32.937500
2226,-6.08,2021-12-17 17:33:32.953125
2227,-5.34,2021-12-17 17:33:32.968750
2228,-3.51,2021-12-17 17:33:32.984375
2229,-1.09,2021-12-17 17:33:33.000000
2230,1.34,2021-12-17 17:33:33.015625
2231,3.27,2021-12-17 17:33:33.031250
2232,4.38,2021-12-17 17:33:33.046875
2233,4.59,2021-12-17 17:33:33.062500
2234,4.12,2021-12-17 17:33:33.078125
2235,3.41,2021-12-17 17:33:33.093750
2236,2.94,2021-12-17 17:33:33.109375
2237,3.09,2021-12-17 17:33:33.125000
2238,3.91,2021-12-17 17:33:33.140625
2239,5.15,2021-12-17 17:33:33.156250
2240,6.42,2021-12-17 17:33:33.171875
2241,7.4,2021-12-17 17:33:33.187500
2242,7.94,2021-12-17 17:33:33.203125
2243,8.11,2021-12-17 17:33:33.218750
2244,8.08,2021-12-17 17:33:33.234375
2245,7.97,2021-12-17 17:33:33.250000
2246,7.79,2021-12-17 17:33:33.265625
2247,7.49,2021-12-17 17:33:33.281250
2248,7.04,2021-12-17 17:33:33.296875
2249,6.48,2021-12-17 17:33:33.312500
2250,5.99,2021-12-17 17:33:33.328125
2251,5.71,2021-12-17 17:33:33.343750
2252,5.72,2021-12-17 17:33:33.359375
2253,5.97,2021-12-17 17:33:33.375000
2254,6.3,2021-12-17 17:33:33.390625
2255,6.53,2021-12-17 17:33:33.406250
2256,6.54,2021-12-17 17:33:33.421875
2257,6.29,2021-12-17 17:33:33.437500
2258,5.8,2021-12-17 17:33:33.453125
2259,5.12,2021-12-17 17:33:33.468750
2260,4.31,2021-12-17 17:33:33.484375
2261,3.38,2021-12-17 17:33:33.500000
2262,2.4,2021-12-17 17:33:33.515625
2263,1.4,2021-12-17 17:33:33.531250
2264,0.47,2021-12-17 17:33:33.546875
2265,-0.4,2021-12-17 17:33:33.562500
2266,-1.23,2021-12-17 17:33:33.578125
2267,-2.11,2021-12-17 17:33:33.593750
2268,-3.11,2021-12-17 17:33:33.609375
2269,-4.27,2021-12-17 17:33:33.625000
2270,-5.53,2021-12-17 17:33:33.640625
2271,-6.78,2021-12-17 17:33:33.656250
2272,-7.86,2021-12-17 17:33:33.671875
2273,-8.7,2021-12-17 17:33:33.687500
2274,-9.31,2021-12-17 17:33:33.703125
2275,-9.88,2021-12-17 17:33:33.718750
2276,-10.75,2021-12-17 17:33:33.734375
2277,-12.31,2021-12-17 17:33:33.750000
2278,-14.84,2021-12-17 17:33:33.765625
2279,-18.24,2021-12-17 17:33:33.781250
2280,-21.84,2021-12-17 17:33:33.796875
2281,-24.47,2021-12-17 17:33:33.812500
2282,-24.84,2021-12-17 17:33:33.828125
2283,-22.07,2021-12-17 17:33:33.843750
2284,-16.12,2021-12-17 17:33:33.859375
2285,-7.98,2021-12-17 17:33:33.875000
2286,0.75,2021-12-17 17:33:33.890625
2287,8.46,2021-12-17 17:33:33.906250
2288,14.01,2021-12-17 17:33:33.921875
2289,17.17,2021-12-17 17:33:33.937500
2290,18.21,2021-12-17 17:33:33.953125
2291,17.68,2021-12-17 17:33:33.968750
2292,15.95,2021-12-17 17:33:33.984375
2293,13.22,2021-12-17 17:33:34.000000
2294,9.67,2021-12-17 17:33:34.015625
2295,5.74,2021-12-17 17:33:34.031250
2296,2.17,2021-12-17 17:33:34.046875
2297,-0.3,2021-12-17 17:33:34.062500
2298,-1.24,2021-12-17 17:33:34.078125
2299,-0.83,2021-12-17 17:33:34.093750
2300,0.23,2021-12-17 17:33:34.109375
2301,1.11,2021-12-17 17:33:34.125000
2302,1.2,2021-12-17 17:33:34.140625
2303,0.48,2021-12-17 17:33:34.156250
2304,-0.56,2021-12-17 17:33:34.171875
2305,-1.21,2021-12-17 17:33:34.187500
2306,-0.96,2021-12-17 17:33:34.203125
2307,0.27,2021-12-17 17:33:34.218750
2308,2.05,2021-12-17 17:33:34.234375
2309,3.7,2021-12-17 17:33:34.250000
2310,4.6,2021-12-17 17:33:34.265625
2311,4.42,2021-12-17 17:33:34.281250
2312,3.31,2021-12-17 17:33:34.296875
2313,1.73,2021-12-17 17:33:34.312500
2314,0.25,2021-12-17 17:33:34.328125
2315,-0.67,2021-12-17 17:33:34.343750
2316,-0.88,2021-12-17 17:33:34.359375
2317,-0.51,2021-12-17 17:33:34.375000
2318,0.1,2021-12-17 17:33:34.390625
2319,0.64,2021-12-17 17:33:34.406250
2320,0.97,2021-12-17 17:33:34.421875
2321,1.21,2021-12-17 17:33:34.437500
2322,1.54,2021-12-17 17:33:34.453125
2323,2.19,2021-12-17 17:33:34.468750
2324,3.12,2021-12-17 17:33:34.484375
2325,4.15,2021-12-17 17:33:34.500000
2326,4.97,2021-12-17 17:33:34.515625
2327,5.34,2021-12-17 17:33:34.531250
2328,5.28,2021-12-17 17:33:34.546875
2329,5.02,2021-12-17 17:33:34.562500
2330,4.88,2021-12-17 17:33:34.578125
2331,5.04,2021-12-17 17:33:34.593750
2332,5.45,2021-12-17 17:33:34.609375
2333,5.79,2021-12-17 17:33:34.625000
2334,5.7,2021-12-17 17:33:34.640625
2335,4.91,2021-12-17 17:33:34.656250
2336,3.34,2021-12-17 17:33:34.671875
2337,1.2,2021-12-17 17:33:34.687500
2338,-1.23,2021-12-17 17:33:34.703125
2339,-3.62,2021-12-17 17:33:34.718750
2340,-5.78,2021-12-17 17:33:34.734375
2341,-7.56,2021-12-17 17:33:34.750000
2342,-8.98,2021-12-17 17:33:34.765625
2343,-10.1,2021-12-17 17:33:34.781250
2344,-11.06,2021-12-17 17:33:34.796875
2345,-11.95,2021-12-17 17:33:34.812500
2346,-12.87,2021-12-17 17:33:34.828125
2347,-14.0,2021-12-17 17:33:34.843750
2348,-15.45,2021-12-17 17:33:34.859375
2349,-17.29,2021-12-17 17:33:34.875000
2350,-19.31,2021-12-17 17:33:34.890625
2351,-21.05,2021-12-17 17:33:34.906250
2352,-21.79,2021-12-17 17:33:34.921875
2353,-20.83,2021-12-17 17:33:34.937500
2354,-17.78,2021-12-17 17:33:34.953125
2355,-12.88,2021-12-17 17:33:34.968750
2356,-6.98,2021-12-17 17:33:34.984375
2357,-1.26,2021-12-17 17:33:35.000000
2358,3.14,2021-12-17 17:33:35.015625
2359,5.52,2021-12-17 17:33:35.031250
2360,5.81,2021-12-17 17:33:35.046875
2361,4.47,2021-12-17 17:33:35.062500
2362,2.22,2021-12-17 17:33:35.078125
2363,-0.21,2021-12-17 17:33:35.093750
2364,-2.21,2021-12-17 17:33:35.109375
2365,-3.44,2021-12-17 17:33:35.125000
2366,-3.66,2021-12-17 17:33:35.140625
2367,-2.89,2021-12-17 17:33:35.156250
2368,-1.26,2021-12-17 17:33:35.171875
2369,1.0,2021-12-17 17:33:35.187500
2370,3.55,2021-12-17 17:33:35.203125
2371,6.05,2021-12-17 17:33:35.218750
2372,8.15,2021-12-17 17:33:35.234375
2373,9.64,2021-12-17 17:33:35.250000
2374,10.4,2021-12-17 17:33:35.265625
2375,10.63,2021-12-17 17:33:35.281250
2376,10.6,2021-12-17 17:33:35.296875
2377,10.67,2021-12-17 17:33:35.312500
2378,11.13,2021-12-17 17:33:35.328125
2379,11.99,2021-12-17 17:33:35.343750
2380,13.05,2021-12-17 17:33:35.359375
2381,13.85,2021-12-17 17:33:35.375000
2382,14.05,2021-12-17 17:33:35.390625
2383,13.55,2021-12-17 17:33:35.406250
2384,12.7,2021-12-17 17:33:35.421875
2385,12.08,2021-12-17 17:33:35.437500
2386,12.28,2021-12-17 17:33:35.453125
2387,13.58,2021-12-17 17:33:35.468750
2388,15.82,2021-12-17 17:33:35.484375
2389,18.43,2021-12-17 17:33:35.500000
2390,20.72,2021-12-17 17:33:35.515625
2391,22.14,2021-12-17 17:33:35.531250
2392,22.53,2021-12-17 17:33:35.546875
2393,22.12,2021-12-17 17:33:35.562500
2394,21.34,2021-12-17 17:33:35.578125
2395,20.46,2021-12-17 17:33:35.593750
2396,19.5,2021-12-17 17:33:35.609375
2397,18.27,2021-12-17 17:33:35.625000
2398,16.59,2021-12-17 17:33:35.640625
2399,14.4,2021-12-17 17:33:35.656250
2400,11.86,2021-12-17 17:33:35.671875
2401,9.24,2021-12-17 17:33:35.687500
2402,6.73,2021-12-17 17:33:35.703125
2403,4.36,2021-12-17 17:33:35.718750
2404,2.05,2021-12-17 17:33:35.734375
2405,-0.27,2021-12-17 17:33:35.750000
2406,-2.58,2021-12-17 17:33:35.765625
2407,-4.64,2021-12-17 17:33:35.781250
2408,-6.14,2021-12-17 17:33:35.796875
2409,-6.86,2021-12-17 17:33:35.812500
2410,-6.83,2021-12-17 17:33:35.828125
2411,-6.27,2021-12-17 17:33:35.843750
2412,-5.51,2021-12-17 17:33:35.859375
2413,-4.88,2021-12-17 17:33:35.875000
2414,-4.6,2021-12-17 17:33:35.890625
2415,-4.94,2021-12-17 17:33:35.906250
2416,-6.17,2021-12-17 17:33:35.921875
2417,-8.55,2021-12-17 17:33:35.937500
2418,-12.13,2021-12-17 17:33:35.953125
2419,-16.53,2021-12-17 17:33:35.968750
2420,-20.87,2021-12-17 17:33:35.984375
2421,-23.93,2021-12-17 17:33:36.000000
2422,-24.56,2021-12-17 17:33:36.015625
2423,-22.17,2021-12-17 17:33:36.031250
2424,-17.07,2021-12-17 17:33:36.046875
2425,-10.43,2021-12-17 17:33:36.062500
2426,-3.85,2021-12-17 17:33:36.078125
2427,1.21,2021-12-17 17:33:36.093750
2428,3.95,2021-12-17 17:33:36.109375
2429,4.4,2021-12-17 17:33:36.125000
2430,3.23,2021-12-17 17:33:36.140625
2431,1.29,2021-12-17 17:33:36.156250
2432,-0.64,2021-12-17 17:33:36.171875
2433,-2.1,2021-12-17 17:33:36.187500
2434,-2.91,2021-12-17 17:33:36.203125
2435,-3.03,2021-12-17 17:33:36.218750
2436,-2.56,2021-12-17 17:33:36.234375
2437,-1.6,2021-12-17 17:33:36.250000
2438,-0.36,2021-12-17 17:33:36.265625
2439,0.87,2021-12-17 17:33:36.281250
2440,1.71,2021-12-17 17:33:36.296875
2441,1.89,2021-12-17 17:33:36.312500
2442,1.4,2021-12-17 17:33:36.328125
2443,0.51,2021-12-17 17:33:36.343750
2444,-0.31,2021-12-17 17:33:36.359375
2445,-0.61,2021-12-17 17:33:36.375000
2446,-0.21,2021-12-17 17:33:36.390625
2447,0.81,2021-12-17 17:33:36.406250
2448,2.19,2021-12-17 17:33:36.421875
2449,3.51,2021-12-17 17:33:36.437500
2450,4.44,2021-12-17 17:33:36.453125
2451,4.7,2021-12-17 17:33:36.468750
2452,4.17,2021-12-17 17:33:36.484375
2453,2.86,2021-12-17 17:33:36.500000
2454,0.99,2021-12-17 17:33:36.515625
2455,-1.05,2021-12-17 17:33:36.531250
2456,-2.73,2021-12-17 17:33:36.546875
2457,-3.52,2021-12-17 17:33:36.562500
2458,-3.18,2021-12-17 17:33:36.578125
2459,-1.84,2021-12-17 17:33:36.593750
2460,0.1,2021-12-17 17:33:36.609375
2461,2.06,2021-12-17 17:33:36.625000
2462,3.67,2021-12-17 17:33:36.640625
2463,4.81,2021-12-17 17:33:36.656250
2464,5.54,2021-12-17 17:33:36.671875
2465,5.97,2021-12-17 17:33:36.687500
2466,6.06,2021-12-17 17:33:36.703125
2467,5.66,2021-12-17 17:33:36.718750
2468,4.56,2021-12-17 17:33:36.734375
2469,2.71,2021-12-17 17:33:36.750000
2470,0.25,2021-12-17 17:33:36.765625
2471,-2.39,2021-12-17 17:33:36.781250
2472,-4.71,2021-12-17 17:33:36.796875
2473,-6.38,2021-12-17 17:33:36.812500
2474,-7.32,2021-12-17 17:33:36.828125
2475,-7.84,2021-12-17 17:33:36.843750
2476,-8.45,2021-12-17 17:33:36.859375
2477,-9.62,2021-12-17 17:33:36.875000
2478,-11.64,2021-12-17 17:33:36.890625
2479,-14.4,2021-12-17 17:33:36.906250
2480,-17.38,2021-12-17 17:33:36.921875
2481,-19.75,2021-12-17 17:33:36.937500
2482,-20.69,2021-12-17 17:33:36.953125
2483,-19.49,2021-12-17 17:33:36.968750
2484,-15.9,2021-12-17 17:33:36.984375
2485,-10.19,2021-12-17 17:33:37.000000
2486,-3.12,2021-12-17 17:33:37.015625
2487,4.18,2021-12-17 17:33:37.031250
2488,10.49,2021-12-17 17:33:37.046875
2489,14.81,2021-12-17 17:33:37.062500
2490,16.51,2021-12-17 17:33:37.078125
2491,15.49,2021-12-17 17:33:37.093750
2492,12.04,2021-12-17 17:33:37.109375
2493,6.81,2021-12-17 17:33:37.125000
2494,0.62,2021-12-17 17:33:37.140625
2495,-5.44,2021-12-17 17:33:37.156250
2496,-10.28,2021-12-17 17:33:37.171875
2497,-12.83,2021-12-17 17:33:37.187500
2498,-12.41,2021-12-17 17:33:37.203125
2499,-9.08,2021-12-17 17:33:37.218750
2500,-3.67,2021-12-17 17:33:37.234375
2501,2.4,2021-12-17 17:33:37.250000
2502,7.68,2021-12-17 17:33:37.265625
2503,11.12,2021-12-17 17:33:37.281250
2504,12.52,2021-12-17 17:33:37.296875
2505,12.25,2021-12-17 17:33:37.312500
2506,11.1,2021-12-17 17:33:37.328125
2507,9.8,2021-12-17 17:33:37.343750
2508,8.85,2021-12-17 17:33:37.359375
2509,8.58,2021-12-17 17:33:37.375000
2510,9.01,2021-12-17 17:33:37.390625
2511,10.09,2021-12-17 17:33:37.406250
2512,11.64,2021-12-17 17:33:37.421875
2513,13.38,2021-12-17 17:33:37.437500
2514,14.88,2021-12-17 17:33:37.453125
2515,15.75,2021-12-17 17:33:37.468750
2516,15.72,2021-12-17 17:33:37.484375
2517,14.77,2021-12-17 17:33:37.500000
2518,13.06,2021-12-17 17:33:37.515625
2519,10.82,2021-12-17 17:33:37.531250
2520,8.36,2021-12-17 17:33:37.546875
2521,6.05,2021-12-17 17:33:37.562500
2522,4.2,2021-12-17 17:33:37.578125
2523,3.1,2021-12-17 17:33:37.593750
2524,2.7,2021-12-17 17:33:37.609375
2525,2.72,2021-12-17 17:33:37.625000
2526,2.66,2021-12-17 17:33:37.640625
2527,2.14,2021-12-17 17:33:37.656250
2528,0.97,2021-12-17 17:33:37.671875
2529,-0.68,2021-12-17 17:33:37.687500
2530,-2.42,2021-12-17 17:33:37.703125
2531,-3.98,2021-12-17 17:33:37.718750
2532,-5.27,2021-12-17 17:33:37.734375
2533,-6.52,2021-12-17 17:33:37.750000
2534,-8.03,2021-12-17 17:33:37.765625
2535,-9.96,2021-12-17 17:33:37.781250
2536,-12.18,2021-12-17 17:33:37.796875
2537,-14.35,2021-12-17 17:33:37.812500
2538,-16.14,2021-12-17 17:33:37.828125
2539,-17.49,2021-12-17 17:33:37.843750
2540,-18.73,2021-12-17 17:33:37.859375
2541,-20.34,2021-12-17 17:33:37.875000
2542,-22.82,2021-12-17 17:33:37.890625
2543,-26.4,2021-12-17 17:33:37.906250
2544,-31.0,2021-12-17 17:33:37.921875
2545,-36.15,2021-12-17 17:33:37.937500
2546,-41.09,2021-12-17 17:33:37.953125
2547,-44.9,2021-12-17 17:33:37.968750
2548,-46.72,2021-12-17 17:33:37.984375
2549,-46.03,2021-12-17 17:33:38.000000
2550,-42.82,2021-12-17 17:33:38.015625
2551,-37.79,2021-12-17 17:33:38.031250
2552,-32.13,2021-12-17 17:33:38.046875
2553,-27.35,2021-12-17 17:33:38.062500
2554,-24.74,2021-12-17 17:33:38.078125
2555,-25.1,2021-12-17 17:33:38.093750
2556,-28.55,2021-12-17 17:33:38.109375
2557,-34.47,2021-12-17 17:33:38.125000
2558,-41.68,2021-12-17 17:33:38.140625
2559,-48.76,2021-12-17 17:33:38.156250
2560,-54.31,2021-12-17 17:33:38.171875
2561,-57.3,2021-12-17 17:33:38.187500
2562,-57.38,2021-12-17 17:33:38.203125
2563,-55.05,2021-12-17 17:33:38.218750
2564,-51.6,2021-12-17 17:33:38.234375
2565,-48.69,2021-12-17 17:33:38.250000
2566,-47.61,2021-12-17 17:33:38.265625
2567,-48.45,2021-12-17 17:33:38.281250
2568,-49.7,2021-12-17 17:33:38.296875
2569,-48.67,2021-12-17 17:33:38.312500
2570,-42.5,2021-12-17 17:33:38.328125
2571,-29.58,2021-12-17 17:33:38.343750
2572,-10.49,2021-12-17 17:33:38.359375
2573,12.02,2021-12-17 17:33:38.375000
2574,34.01,2021-12-17 17:33:38.390625
2575,51.93,2021-12-17 17:33:38.406250
2576,63.55,2021-12-17 17:33:38.421875
2577,68.34,2021-12-17 17:33:38.437500
2578,66.87,2021-12-17 17:33:38.453125
2579,60.25,2021-12-17 17:33:38.468750
2580,50.18,2021-12-17 17:33:38.484375
2581,39.21,2021-12-17 17:33:38.500000
2582,30.73,2021-12-17 17:33:38.515625
2583,27.77,2021-12-17 17:33:38.531250
2584,31.37,2021-12-17 17:33:38.546875
2585,39.3,2021-12-17 17:33:38.562500
2586,46.54,2021-12-17 17:33:38.578125
2587,47.54,2021-12-17 17:33:38.593750
2588,38.92,2021-12-17 17:33:38.609375
2589,21.25,2021-12-17 17:33:38.625000
2590,-1.57,2021-12-17 17:33:38.640625
2591,-24.61,2021-12-17 17:33:38.656250
2592,-44.53,2021-12-17 17:33:38.671875
2593,-60.56,2021-12-17 17:33:38.687500
2594,-73.36,2021-12-17 17:33:38.703125
2595,-83.02,2021-12-17 17:33:38.718750
2596,-87.64,2021-12-17 17:33:38.734375
2597,-84.0,2021-12-17 17:33:38.750000
2598,-69.72,2021-12-17 17:33:38.765625
2599,-45.48,2021-12-17 17:33:38.781250
2600,-15.38,2021-12-17 17:33:38.796875
2601,14.55,2021-12-17 17:33:38.812500
2602,39.25,2021-12-17 17:33:38.828125
2603,56.75,2021-12-17 17:33:38.843750
2604,68.47,2021-12-17 17:33:38.859375
2605,77.74,2021-12-17 17:33:38.875000
2606,87.55,2021-12-17 17:33:38.890625
2607,98.82,2021-12-17 17:33:38.906250
2608,109.93,2021-12-17 17:33:38.921875
2609,117.75,2021-12-17 17:33:38.937500
2610,119.19,2021-12-17 17:33:38.953125
2611,112.7,2021-12-17 17:33:38.968750
2612,99.06,2021-12-17 17:33:38.984375
2613,81.5,2021-12-17 17:33:39.000000
2614,65.13,2021-12-17 17:33:39.015625
2615,55.79,2021-12-17 17:33:39.031250
2616,58.1,2021-12-17 17:33:39.046875
2617,73.47,2021-12-17 17:33:39.062500
2618,98.9,2021-12-17 17:33:39.078125
2619,127.35,2021-12-17 17:33:39.093750
2620,149.88,2021-12-17 17:33:39.109375
2621,158.83,2021-12-17 17:33:39.125000
2622,150.58,2021-12-17 17:33:39.140625
2623,126.3,2021-12-17 17:33:39.156250
2624,90.78,2021-12-17 17:33:39.171875
2625,49.81,2021-12-17 17:33:39.187500
2626,7.9,2021-12-17 17:33:39.203125
2627,-32.49,2021-12-17 17:33:39.218750
2628,-70.13,2021-12-17 17:33:39.234375
2629,-103.56,2021-12-17 17:33:39.250000
2630,-129.83,2021-12-17 17:33:39.265625
2631,-144.88,2021-12-17 17:33:39.281250
2632,-144.97,2021-12-17 17:33:39.296875
2633,-128.18,2021-12-17 17:33:39.312500
2634,-95.26,2021-12-17 17:33:39.328125
2635,-49.3,2021-12-17 17:33:39.343750
2636,5.27,2021-12-17 17:33:39.359375
2637,63.47,2021-12-17 17:33:39.375000
2638,119.92,2021-12-17 17:33:39.390625
2639,168.72,2021-12-17 17:33:39.406250
2640,203.42,2021-12-17 17:33:39.421875
2641,217.75,2021-12-17 17:33:39.437500
2642,207.33,2021-12-17 17:33:39.453125
2643,171.21,2021-12-17 17:33:39.468750
2644,112.63,2021-12-17 17:33:39.484375
2645,38.4,2021-12-17 17:33:39.500000
2646,-42.73,2021-12-17 17:33:39.515625
2647,-122.07,2021-12-17 17:33:39.531250
2648,-192.39,2021-12-17 17:33:39.546875
2649,-248.84,2021-12-17 17:33:39.562500
2650,-288.96,2021-12-17 17:33:39.578125
2651,-312.31,2021-12-17 17:33:39.593750
2652,-320.32,2021-12-17 17:33:39.609375
2653,-316.41,2021-12-17 17:33:39.625000
2654,-305.32,2021-12-17 17:33:39.640625
2655,-292.15,2021-12-17 17:33:39.656250
2656,-280.83,2021-12-17 17:33:39.671875
2657,-272.66,2021-12-17 17:33:39.687500
2658,-266.32,2021-12-17 17:33:39.703125
2659,-258.66,2021-12-17 17:33:39.718750
2660,-245.16,2021-12-17 17:33:39.734375
2661,-222.02,2021-12-17 17:33:39.750000
2662,-187.83,2021-12-17 17:33:39.765625
2663,-144.12,2021-12-17 17:33:39.781250
2664,-94.6,2021-12-17 17:33:39.796875
2665,-43.5,2021-12-17 17:33:39.812500
2666,6.79,2021-12-17 17:33:39.828125
2667,55.5,2021-12-17 17:33:39.843750
2668,102.38,2021-12-17 17:33:39.859375
2669,148.04,2021-12-17 17:33:39.875000
2670,192.41,2021-12-17 17:33:39.890625
2671,233.62,2021-12-17 17:33:39.906250
2672,268.82,2021-12-17 17:33:39.921875
2673,295.65,2021-12-17 17:33:39.937500
2674,313.52,2021-12-17 17:33:39.953125
2675,325.19,2021-12-17 17:33:39.968750
2676,334.64,2021-12-17 17:33:39.984375
2677,345.04,2021-12-17 17:33:40.000000
2678,359.68,2021-12-17 17:33:40.015625
2679,380.28,2021-12-17 17:33:40.031250
2680,405.09,2021-12-17 17:33:40.046875
2681,428.81,2021-12-17 17:33:40.062500
2682,444.03,2021-12-17 17:33:40.078125
2683,443.48,2021-12-17 17:33:40.093750
2684,424.16,2021-12-17 17:33:40.109375
2685,386.79,2021-12-17 17:33:40.125000
2686,334.54,2021-12-17 17:33:40.140625
2687,274.34,2021-12-17 17:33:40.156250
2688,213.97,2021-12-17 17:33:40.171875
2689,158.93,2021-12-17 17:33:40.187500
2690,111.87,2021-12-17 17:33:40.203125
2691,73.53,2021-12-17 17:33:40.218750
2692,36.36,2021-12-17 17:33:40.234375
2693,0.32,2021-12-17 17:33:40.250000
2694,-22.2,2021-12-17 17:33:40.265625
2695,-28.97,2021-12-17 17:33:40.281250
2696,-24.39,2021-12-17 17:33:40.296875
2697,-12.68,2021-12-17 17:33:40.312500
2698,1.21,2021-12-17 17:33:40.328125
2699,12.78,2021-12-17 17:33:40.343750
2700,18.68,2021-12-17 17:33:40.359375
2701,17.37,2021-12-17 17:33:40.375000
2702,10.33,2021-12-17 17:33:40.390625
2703,-0.81,2021-12-17 17:33:40.406250
2704,-16.23,2021-12-17 17:33:40.421875
2705,-35.32,2021-12-17 17:33:40.437500
2706,-57.16,2021-12-17 17:33:40.453125
2707,-81.6,2021-12-17 17:33:40.468750
2708,-108.69,2021-12-17 17:33:40.484375
2709,-138.37,2021-12-17 17:33:40.500000
2710,-170.31,2021-12-17 17:33:40.515625
2711,-203.24,2021-12-17 17:33:40.531250
2712,-236.87,2021-12-17 17:33:40.546875
2713,-272.57,2021-12-17 17:33:40.562500
2714,-309.98,2021-12-17 17:33:40.578125
2715,-346.29,2021-12-17 17:33:40.593750
2716,-376.69,2021-12-17 17:33:40.609375
2717,-395.33,2021-12-17 17:33:40.625000
2718,-397.28,2021-12-17 17:33:40.640625
2719,-380.7,2021-12-17 17:33:40.656250
2720,-347.32,2021-12-17 17:33:40.671875
2721,-302.9,2021-12-17 17:33:40.687500
2722,-255.6,2021-12-17 17:33:40.703125
2723,-211.98,2021-12-17 17:33:40.718750
2724,-175.4,2021-12-17 17:33:40.734375
2725,-146.47,2021-12-17 17:33:40.750000
2726,-124.06,2021-12-17 17:33:40.765625
2727,-106.66,2021-12-17 17:33:40.781250
2728,-93.14,2021-12-17 17:33:40.796875
2729,-82.32,2021-12-17 17:33:40.812500
2730,-73.11,2021-12-17 17:33:40.828125
2731,-64.47,2021-12-17 17:33:40.843750
2732,-55.0,2021-12-17 17:33:40.859375
2733,-43.67,2021-12-17 17:33:40.875000
2734,-30.56,2021-12-17 17:33:40.890625
2735,-16.8,2021-12-17 17:33:40.906250
2736,-4.07,2021-12-17 17:33:40.921875
2737,6.31,2021-12-17 17:33:40.937500
2738,14.07,2021-12-17 17:33:40.953125
2739,19.84,2021-12-17 17:33:40.968750
2740,24.76,2021-12-17 17:33:40.984375
2741,29.95,2021-12-17 17:33:41.000000
2742,35.99,2021-12-17 17:33:41.015625
2743,42.54,2021-12-17 17:33:41.031250
2744,48.57,2021-12-17 17:33:41.046875
2745,52.9,2021-12-17 17:33:41.062500
2746,54.75,2021-12-17 17:33:41.078125
2747,54.14,2021-12-17 17:33:41.093750
2748,51.91,2021-12-17 17:33:41.109375
2749,49.27,2021-12-17 17:33:41.125000
2750,47.35,2021-12-17 17:33:41.140625
2751,46.65,2021-12-17 17:33:41.156250
2752,46.88,2021-12-17 17:33:41.171875
2753,47.01,2021-12-17 17:33:41.187500
2754,45.71,2021-12-17 17:33:41.203125
2755,41.87,2021-12-17 17:33:41.218750
2756,35.04,2021-12-17 17:33:41.234375
2757,25.66,2021-12-17 17:33:41.250000
2758,14.92,2021-12-17 17:33:41.265625
2759,4.37,2021-12-17 17:33:41.281250
2760,-4.53,2021-12-17 17:33:41.296875
2761,-10.77,2021-12-17 17:33:41.312500
2762,-13.99,2021-12-17 17:33:41.328125
2763,-14.43,2021-12-17 17:33:41.343750
2764,-12.78,2021-12-17 17:33:41.359375
2765,-9.92,2021-12-17 17:33:41.375000
2766,-6.75,2021-12-17 17:33:41.390625
2767,-4.0,2021-12-17 17:33:41.406250
2768,-2.08,2021-12-17 17:33:41.421875
2769,-1.06,2021-12-17 17:33:41.437500
2770,-0.69,2021-12-17 17:33:41.453125
2771,-0.52,2021-12-17 17:33:41.468750
2772,-0.07,2021-12-17 17:33:41.484375
2773,0.83,2021-12-17 17:33:41.500000
2774,2.13,2021-12-17 17:33:41.515625
2775,3.55,2021-12-17 17:33:41.531250
2776,4.79,2021-12-17 17:33:41.546875
2777,5.71,2021-12-17 17:33:41.562500
2778,6.31,2021-12-17 17:33:41.578125
2779,6.7,2021-12-17 17:33:41.593750
2780,6.92,2021-12-17 17:33:41.609375
2781,6.95,2021-12-17 17:33:41.625000
2782,6.72,2021-12-17 17:33:41.640625
2783,6.18,2021-12-17 17:33:41.656250
2784,5.41,2021-12-17 17:33:41.671875
2785,4.62,2021-12-17 17:33:41.687500
2786,4.0,2021-12-17 17:33:41.703125
2787,3.71,2021-12-17 17:33:41.718750
2788,3.79,2021-12-17 17:33:41.734375
2789,4.14,2021-12-17 17:33:41.750000
2790,4.63,2021-12-17 17:33:41.765625
2791,5.08,2021-12-17 17:33:41.781250
2792,5.35,2021-12-17 17:33:41.796875
2793,5.27,2021-12-17 17:33:41.812500
2794,4.73,2021-12-17 17:33:41.828125
2795,3.63,2021-12-17 17:33:41.843750
2796,2.07,2021-12-17 17:33:41.859375
2797,0.32,2021-12-17 17:33:41.875000
2798,-1.17,2021-12-17 17:33:41.890625
2799,-2.02,2021-12-17 17:33:41.906250
2800,-2.04,2021-12-17 17:33:41.921875
2801,-1.43,2021-12-17 17:33:41.937500
2802,-0.75,2021-12-17 17:33:41.953125
2803,-0.78,2021-12-17 17:33:41.968750
2804,-2.07,2021-12-17 17:33:41.984375
2805,-4.61,2021-12-17 17:33:42.000000
2806,-7.71,2021-12-17 17:33:42.015625
2807,-10.16,2021-12-17 17:33:42.031250
2808,-10.66,2021-12-17 17:33:42.046875
2809,-8.37,2021-12-17 17:33:42.062500
2810,-3.3,2021-12-17 17:33:42.078125
2811,3.67,2021-12-17 17:33:42.093750
2812,10.94,2021-12-17 17:33:42.109375
2813,16.77,2021-12-17 17:33:42.125000
2814,19.81,2021-12-17 17:33:42.140625
2815,19.45,2021-12-17 17:33:42.156250
2816,15.96,2021-12-17 17:33:42.171875
2817,10.34,2021-12-17 17:33:42.187500
2818,3.91,2021-12-17 17:33:42.203125
2819,-2.16,2021-12-17 17:33:42.218750
2820,-7.02,2021-12-17 17:33:42.234375
2821,-10.38,2021-12-17 17:33:42.250000
2822,-12.37,2021-12-17 17:33:42.265625
2823,-13.27,2021-12-17 17:33:42.281250
2824,-13.2,2021-12-17 17:33:42.296875
2825,-12.02,2021-12-17 17:33:42.312500
2826,-9.33,2021-12-17 17:33:42.328125
2827,-4.81,2021-12-17 17:33:42.343750
2828,1.58,2021-12-17 17:33:42.359375
2829,9.47,2021-12-17 17:33:42.375000
2830,18.09,2021-12-17 17:33:42.390625
2831,26.47,2021-12-17 17:33:42.406250
2832,33.75,2021-12-17 17:33:42.421875
2833,39.3,2021-12-17 17:33:42.437500
2834,42.95,2021-12-17 17:33:42.453125
2835,45.0,2021-12-17 17:33:42.468750
2836,46.07,2021-12-17 17:33:42.484375
2837,46.82,2021-12-17 17:33:42.500000
2838,47.77,2021-12-17 17:33:42.515625
2839,48.9,2021-12-17 17:33:42.531250
2840,49.85,2021-12-17 17:33:42.546875
2841,50.04,2021-12-17 17:33:42.562500
2842,49.09,2021-12-17 17:33:42.578125
2843,47.13,2021-12-17 17:33:42.593750
2844,44.81,2021-12-17 17:33:42.609375
2845,43.01,2021-12-17 17:33:42.625000
2846,42.5,2021-12-17 17:33:42.640625
2847,43.49,2021-12-17 17:33:42.656250
2848,45.53,2021-12-17 17:33:42.671875
2849,47.67,2021-12-17 17:33:42.687500
2850,48.84,2021-12-17 17:33:42.703125
2851,47.97,2021-12-17 17:33:42.718750
2852,44.39,2021-12-17 17:33:42.734375
2853,37.82,2021-12-17 17:33:42.750000
2854,28.34,2021-12-17 17:33:42.765625
2855,16.41,2021-12-17 17:33:42.781250
2856,2.92,2021-12-17 17:33:42.796875
2857,-10.91,2021-12-17 17:33:42.812500
2858,-23.69,2021-12-17 17:33:42.828125
2859,-34.02,2021-12-17 17:33:42.843750
2860,-40.91,2021-12-17 17:33:42.859375
2861,-44.16,2021-12-17 17:33:42.875000
2862,-44.32,2021-12-17 17:33:42.890625
2863,-42.74,2021-12-17 17:33:42.906250
2864,-40.96,2021-12-17 17:33:42.921875
2865,-40.07,2021-12-17 17:33:42.937500
2866,-40.26,2021-12-17 17:33:42.953125
2867,-40.73,2021-12-17 17:33:42.968750
2868,-40.13,2021-12-17 17:33:42.984375
2869,-37.34,2021-12-17 17:33:43.000000
2870,-31.98,2021-12-17 17:33:43.015625
2871,-24.67,2021-12-17 17:33:43.031250
2872,-16.67,2021-12-17 17:33:43.046875
2873,-9.3,2021-12-17 17:33:43.062500
2874,-3.51,2021-12-17 17:33:43.078125
2875,0.36,2021-12-17 17:33:43.093750
2876,2.3,2021-12-17 17:33:43.109375
2877,2.5,2021-12-17 17:33:43.125000
2878,1.08,2021-12-17 17:33:43.140625
2879,-1.73,2021-12-17 17:33:43.156250
2880,-5.56,2021-12-17 17:33:43.171875
2881,-9.66,2021-12-17 17:33:43.187500
2882,-13.06,2021-12-17 17:33:43.203125
2883,-14.79,2021-12-17 17:33:43.218750
2884,-14.23,2021-12-17 17:33:43.234375
2885,-11.28,2021-12-17 17:33:43.250000
2886,-6.45,2021-12-17 17:33:43.265625
2887,-0.81,2021-12-17 17:33:43.281250
2888,4.42,2021-12-17 17:33:43.296875
2889,8.15,2021-12-17 17:33:43.312500
2890,9.89,2021-12-17 17:33:43.328125
2891,9.94,2021-12-17 17:33:43.343750
2892,9.31,2021-12-17 17:33:43.359375
2893,9.19,2021-12-17 17:33:43.375000
2894,10.42,2021-12-17 17:33:43.390625
2895,13.0,2021-12-17 17:33:43.406250
2896,16.08,2021-12-17 17:33:43.421875
2897,18.4,2021-12-17 17:33:43.437500
2898,18.87,2021-12-17 17:33:43.453125
2899,17.17,2021-12-17 17:33:43.468750
2900,13.8,2021-12-17 17:33:43.484375
2901,9.69,2021-12-17 17:33:43.500000
2902,5.78,2021-12-17 17:33:43.515625
2903,2.63,2021-12-17 17:33:43.531250
2904,0.35,2021-12-17 17:33:43.546875
2905,-1.12,2021-12-17 17:33:43.562500
2906,-1.88,2021-12-17 17:33:43.578125
2907,-1.96,2021-12-17 17:33:43.593750
2908,-1.55,2021-12-17 17:33:43.609375
2909,-1.15,2021-12-17 17:33:43.625000
2910,-1.52,2021-12-17 17:33:43.640625
2911,-3.29,2021-12-17 17:33:43.656250
2912,-6.59,2021-12-17 17:33:43.671875
2913,-10.82,2021-12-17 17:33:43.687500
2914,-14.8,2021-12-17 17:33:43.703125
2915,-17.32,2021-12-17 17:33:43.718750
2916,-17.72,2021-12-17 17:33:43.734375
2917,-16.22,2021-12-17 17:33:43.750000
2918,-13.82,2021-12-17 17:33:43.765625
2919,-11.91,2021-12-17 17:33:43.781250
2920,-11.55,2021-12-17 17:33:43.796875
2921,-13.09,2021-12-17 17:33:43.812500
2922,-16.06,2021-12-17 17:33:43.828125
2923,-19.35,2021-12-17 17:33:43.843750
2924,-21.79,2021-12-17 17:33:43.859375
2925,-22.56,2021-12-17 17:33:43.875000
2926,-21.49,2021-12-17 17:33:43.890625
2927,-19.11,2021-12-17 17:33:43.906250
2928,-16.43,2021-12-17 17:33:43.921875
2929,-14.44,2021-12-17 17:33:43.937500
2930,-13.91,2021-12-17 17:33:43.953125
2931,-15.04,2021-12-17 17:33:43.968750
2932,-17.56,2021-12-17 17:33:43.984375
2933,-20.68,2021-12-17 17:33:44.000000
2934,-23.2,2021-12-17 17:33:44.015625
2935,-23.79,2021-12-17 17:33:44.031250
2936,-21.13,2021-12-17 17:33:44.046875
2937,-14.41,2021-12-17 17:33:44.062500
2938,-3.8,2021-12-17 17:33:44.078125
2939,9.49,2021-12-17 17:33:44.093750
2940,23.35,2021-12-17 17:33:44.109375
2941,35.4,2021-12-17 17:33:44.125000
2942,43.65,2021-12-17 17:33:44.140625
2943,47.21,2021-12-17 17:33:44.156250
2944,46.48,2021-12-17 17:33:44.171875
2945,42.9,2021-12-17 17:33:44.187500
2946,38.36,2021-12-17 17:33:44.203125
2947,34.54,2021-12-17 17:33:44.218750
2948,32.34,2021-12-17 17:33:44.234375
2949,31.9,2021-12-17 17:33:44.250000
2950,32.73,2021-12-17 17:33:44.265625
2951,34.21,2021-12-17 17:33:44.281250
2952,35.79,2021-12-17 17:33:44.296875
2953,37.15,2021-12-17 17:33:44.312500
2954,38.02,2021-12-17 17:33:44.328125
2955,38.09,2021-12-17 17:33:44.343750
2956,36.97,2021-12-17 17:33:44.359375
2957,34.32,2021-12-17 17:33:44.375000
2958,30.28,2021-12-17 17:33:44.390625
2959,25.51,2021-12-17 17:33:44.406250
2960,21.02,2021-12-17 17:33:44.421875
2961,17.7,2021-12-17 17:33:44.437500
2962,15.76,2021-12-17 17:33:44.453125
2963,14.57,2021-12-17 17:33:44.468750
2964,12.98,2021-12-17 17:33:44.484375
2965,9.9,2021-12-17 17:33:44.500000
2966,5.0,2021-12-17 17:33:44.515625
2967,-1.1,2021-12-17 17:33:44.531250
2968,-7.1,2021-12-17 17:33:44.546875
2969,-11.57,2021-12-17 17:33:44.562500
2970,-13.72,2021-12-17 17:33:44.578125
2971,-13.66,2021-12-17 17:33:44.593750
2972,-12.44,2021-12-17 17:33:44.609375
2973,-11.45,2021-12-17 17:33:44.625000
2974,-11.86,2021-12-17 17:33:44.640625
2975,-14.13,2021-12-17 17:33:44.656250
2976,-17.99,2021-12-17 17:33:44.671875
2977,-22.57,2021-12-17 17:33:44.687500
2978,-26.99,2021-12-17 17:33:44.703125
2979,-30.64,2021-12-17 17:33:44.718750
2980,-33.33,2021-12-17 17:33:44.734375
2981,-35.25,2021-12-17 17:33:44.750000
2982,-36.69,2021-12-17 17:33:44.765625
2983,-37.8,2021-12-17 17:33:44.781250
2984,-38.61,2021-12-17 17:33:44.796875
2985,-39.1,2021-12-17 17:33:44.812500
2986,-39.24,2021-12-17 17:33:44.828125
2987,-39.14,2021-12-17 17:33:44.843750
2988,-38.92,2021-12-17 17:33:44.859375
2989,-38.76,2021-12-17 17:33:44.875000
2990,-38.75,2021-12-17 17:33:44.890625
2991,-38.99,2021-12-17 17:33:44.906250
2992,-39.6,2021-12-17 17:33:44.921875
2993,-40.58,2021-12-17 17:33:44.937500
2994,-41.88,2021-12-17 17:33:44.953125
2995,-43.28,2021-12-17 17:33:44.968750
2996,-44.47,2021-12-17 17:33:44.984375
2997,-44.99,2021-12-17 17:33:45.000000
2998,-44.62,2021-12-17 17:33:45.015625
2999,-43.31,2021-12-17 17:33:45.031250
3000,-41.55,2021-12-17 17:33:45.046875
3001,-40.13,2021-12-17 17:33:45.062500
3002,-39.82,2021-12-17 17:33:45.078125
3003,-40.68,2021-12-17 17:33:45.093750
3004,-41.79,2021-12-17 17:33:45.109375
3005,-41.43,2021-12-17 17:33:45.125000
3006,-37.56,2021-12-17 17:33:45.140625
3007,-29.0,2021-12-17 17:33:45.156250
3008,-16.27,2021-12-17 17:33:45.171875
3009,-1.63,2021-12-17 17:33:45.187500
3010,11.61,2021-12-17 17:33:45.203125
3011,20.72,2021-12-17 17:33:45.218750
3012,24.54,2021-12-17 17:33:45.234375
3013,23.8,2021-12-17 17:33:45.250000
3014,20.59,2021-12-17 17:33:45.265625
3015,16.93,2021-12-17 17:33:45.281250
3016,14.01,2021-12-17 17:33:45.296875
3017,12.31,2021-12-17 17:33:45.312500
3018,12.36,2021-12-17 17:33:45.328125
3019,15.24,2021-12-17 17:33:45.343750
3020,22.17,2021-12-17 17:33:45.359375
3021,33.17,2021-12-17 17:33:45.375000
3022,46.06,2021-12-17 17:33:45.390625
3023,56.61,2021-12-17 17:33:45.406250
3024,60.29,2021-12-17 17:33:45.421875
3025,54.97,2021-12-17 17:33:45.437500
3026,42.57,2021-12-17 17:33:45.453125
3027,28.84,2021-12-17 17:33:45.468750
3028,20.74,2021-12-17 17:33:45.484375
3029,23.19,2021-12-17 17:33:45.500000
3030,36.65,2021-12-17 17:33:45.515625
3031,57.19,2021-12-17 17:33:45.531250
3032,78.57,2021-12-17 17:33:45.546875
3033,95.1,2021-12-17 17:33:45.562500
3034,103.51,2021-12-17 17:33:45.578125
3035,103.5,2021-12-17 17:33:45.593750
3036,96.87,2021-12-17 17:33:45.609375
3037,86.03,2021-12-17 17:33:45.625000
3038,73.35,2021-12-17 17:33:45.640625
3039,61.16,2021-12-17 17:33:45.656250
3040,51.95,2021-12-17 17:33:45.671875
3041,48.36,2021-12-17 17:33:45.687500
3042,52.36,2021-12-17 17:33:45.703125
3043,64.23,2021-12-17 17:33:45.718750
3044,81.59,2021-12-17 17:33:45.734375
3045,99.43,2021-12-17 17:33:45.750000
3046,111.49,2021-12-17 17:33:45.765625
3047,112.27,2021-12-17 17:33:45.781250
3048,99.16,2021-12-17 17:33:45.796875
3049,73.31,2021-12-17 17:33:45.812500
3050,39.18,2021-12-17 17:33:45.828125
3051,2.6,2021-12-17 17:33:45.843750
3052,-31.42,2021-12-17 17:33:45.859375
3053,-60.15,2021-12-17 17:33:45.875000
3054,-83.32,2021-12-17 17:33:45.890625
3055,-102.26,2021-12-17 17:33:45.906250
3056,-118.63,2021-12-17 17:33:45.921875
3057,-133.55,2021-12-17 17:33:45.937500
3058,-147.5,2021-12-17 17:33:45.953125
3059,-160.64,2021-12-17 17:33:45.968750
3060,-173.08,2021-12-17 17:33:45.984375
3061,-184.86,2021-12-17 17:33:46.000000
3062,-195.57,2021-12-17 17:33:46.015625
3063,-204.31,2021-12-17 17:33:46.031250
3064,-209.82,2021-12-17 17:33:46.046875
3065,-211.15,2021-12-17 17:33:46.062500
3066,-208.07,2021-12-17 17:33:46.078125
3067,-201.24,2021-12-17 17:33:46.093750
3068,-191.8,2021-12-17 17:33:46.109375
3069,-180.67,2021-12-17 17:33:46.125000
3070,-167.92,2021-12-17 17:33:46.140625
3071,-152.56,2021-12-17 17:33:46.156250
3072,-132.86,2021-12-17 17:33:46.171875
3073,-106.91,2021-12-17 17:33:46.187500
3074,-73.46,2021-12-17 17:33:46.203125
3075,-32.44,2021-12-17 17:33:46.218750
3076,14.77,2021-12-17 17:33:46.234375
3077,65.54,2021-12-17 17:33:46.250000
3078,116.8,2021-12-17 17:33:46.265625
3079,166.05,2021-12-17 17:33:46.281250
3080,212.21,2021-12-17 17:33:46.296875
3081,255.74,2021-12-17 17:33:46.312500
3082,297.76,2021-12-17 17:33:46.328125
3083,338.49,2021-12-17 17:33:46.343750
3084,375.94,2021-12-17 17:33:46.359375
3085,405.61,2021-12-17 17:33:46.375000
3086,421.67,2021-12-17 17:33:46.390625
3087,418.99,2021-12-17 17:33:46.406250
3088,395.11,2021-12-17 17:33:46.421875
3089,351.22,2021-12-17 17:33:46.437500
3090,291.85,2021-12-17 17:33:46.453125
3091,223.54,2021-12-17 17:33:46.468750
3092,153.19,2021-12-17 17:33:46.484375
3093,86.69,2021-12-17 17:33:46.500000
3094,28.23,2021-12-17 17:33:46.515625
3095,-20.07,2021-12-17 17:33:46.531250
3096,-58.04,2021-12-17 17:33:46.546875
3097,-87.19,2021-12-17 17:33:46.562500
3098,-110.02,2021-12-17 17:33:46.578125
3099,-128.93,2021-12-17 17:33:46.593750
3100,-145.29,2021-12-17 17:33:46.609375
3101,-159.1,2021-12-17 17:33:46.625000
3102,-169.16,2021-12-17 17:33:46.640625
3103,-174.15,2021-12-17 17:33:46.656250
3104,-173.51,2021-12-17 17:33:46.671875
3105,-167.8,2021-12-17 17:33:46.687500
3106,-158.57,2021-12-17 17:33:46.703125
3107,-147.74,2021-12-17 17:33:46.718750
3108,-136.92,2021-12-17 17:33:46.734375
3109,-127.19,2021-12-17 17:33:46.750000
3110,-119.13,2021-12-17 17:33:46.765625
3111,-112.98,2021-12-17 17:33:46.781250
3112,-108.79,2021-12-17 17:33:46.796875
3113,-106.47,2021-12-17 17:33:46.812500
3114,-105.59,2021-12-17 17:33:46.828125
3115,-105.51,2021-12-17 17:33:46.843750
3116,-105.3,2021-12-17 17:33:46.859375
3117,-103.97,2021-12-17 17:33:46.875000
3118,-100.71,2021-12-17 17:33:46.890625
3119,-94.93,2021-12-17 17:33:46.906250
3120,-86.5,2021-12-17 17:33:46.921875
3121,-75.69,2021-12-17 17:33:46.937500
3122,-63.09,2021-12-17 17:33:46.953125
3123,-49.4,2021-12-17 17:33:46.968750
3124,-35.14,2021-12-17 17:33:46.984375
3125,-20.49,2021-12-17 17:33:47.000000
3126,-5.33,2021-12-17 17:33:47.015625
3127,10.41,2021-12-17 17:33:47.031250
3128,26.47,2021-12-17 17:33:47.046875
3129,42.11,2021-12-17 17:33:47.062500
3130,56.36,2021-12-17 17:33:47.078125
3131,68.31,2021-12-17 17:33:47.093750
3132,77.44,2021-12-17 17:33:47.109375
3133,83.54,2021-12-17 17:33:47.125000
3134,86.7,2021-12-17 17:33:47.140625
3135,86.94,2021-12-17 17:33:47.156250
3136,84.17,2021-12-17 17:33:47.171875
3137,78.35,2021-12-17 17:33:47.187500
3138,69.64,2021-12-17 17:33:47.203125
3139,58.5,2021-12-17 17:33:47.218750
3140,45.59,2021-12-17 17:33:47.234375
3141,31.54,2021-12-17 17:33:47.250000
3142,16.66,2021-12-17 17:33:47.265625
3143,1.03,2021-12-17 17:33:47.281250
3144,-15.29,2021-12-17 17:33:47.296875
3145,-31.84,2021-12-17 17:33:47.312500
3146,-47.6,2021-12-17 17:33:47.328125
3147,-61.14,2021-12-17 17:33:47.343750
3148,-70.99,2021-12-17 17:33:47.359375
3149,-76.14,2021-12-17 17:33:47.375000
3150,-76.23,2021-12-17 17:33:47.390625
3151,-71.61,2021-12-17 17:33:47.406250
3152,-63.04,2021-12-17 17:33:47.421875
3153,-51.4,2021-12-17 17:33:47.437500
3154,-37.41,2021-12-17 17:33:47.453125
3155,-21.63,2021-12-17 17:33:47.468750
3156,-4.54,2021-12-17 17:33:47.484375
3157,13.41,2021-12-17 17:33:47.500000
3158,31.72,2021-12-17 17:33:47.515625
3159,49.95,2021-12-17 17:33:47.531250
3160,67.84,2021-12-17 17:33:47.546875
3161,85.45,2021-12-17 17:33:47.562500
3162,103.18,2021-12-17 17:33:47.578125
3163,121.69,2021-12-17 17:33:47.593750
3164,141.8,2021-12-17 17:33:47.609375
3165,164.16,2021-12-17 17:33:47.625000
3166,189.13,2021-12-17 17:33:47.640625
3167,216.44,2021-12-17 17:33:47.656250
3168,244.97,2021-12-17 17:33:47.671875
3169,272.56,2021-12-17 17:33:47.687500
3170,296.22,2021-12-17 17:33:47.703125
