,BVP,time
0,-318.88,2021-12-17 17:38:58.171875
1,-288.8,2021-12-17 17:38:58.187500
2,-245.98,2021-12-17 17:38:58.203125
3,-197.77,2021-12-17 17:38:58.218750
4,-150.18,2021-12-17 17:38:58.234375
5,-106.91,2021-12-17 17:38:58.250000
6,-69.67,2021-12-17 17:38:58.265625
7,-38.96,2021-12-17 17:38:58.281250
8,-14.9,2021-12-17 17:38:58.296875
9,2.61,2021-12-17 17:38:58.312500
10,14.4,2021-12-17 17:38:58.328125
11,22.13,2021-12-17 17:38:58.343750
12,28.02,2021-12-17 17:38:58.359375
13,34.08,2021-12-17 17:38:58.375000
14,41.23,2021-12-17 17:38:58.390625
15,49.02,2021-12-17 17:38:58.406250
16,56.06,2021-12-17 17:38:58.421875
17,60.89,2021-12-17 17:38:58.437500
18,62.69,2021-12-17 17:38:58.453125
19,61.76,2021-12-17 17:38:58.468750
20,59.15,2021-12-17 17:38:58.484375
21,56.22,2021-12-17 17:38:58.500000
22,54.04,2021-12-17 17:38:58.515625
23,53.09,2021-12-17 17:38:58.531250
24,53.23,2021-12-17 17:38:58.546875
25,53.93,2021-12-17 17:38:58.562500
26,54.56,2021-12-17 17:38:58.578125
27,54.59,2021-12-17 17:38:58.593750
28,53.84,2021-12-17 17:38:58.609375
29,52.58,2021-12-17 17:38:58.625000
30,51.51,2021-12-17 17:38:58.640625
31,51.69,2021-12-17 17:38:58.656250
32,54.12,2021-12-17 17:38:58.671875
33,59.45,2021-12-17 17:38:58.687500
34,67.59,2021-12-17 17:38:58.703125
35,77.56,2021-12-17 17:38:58.718750
36,87.77,2021-12-17 17:38:58.734375
37,96.46,2021-12-17 17:38:58.750000
38,102.35,2021-12-17 17:38:58.765625
39,105.08,2021-12-17 17:38:58.781250
40,105.26,2021-12-17 17:38:58.796875
41,104.04,2021-12-17 17:38:58.812500
42,102.44,2021-12-17 17:38:58.828125
43,100.85,2021-12-17 17:38:58.843750
44,98.87,2021-12-17 17:38:58.859375
45,95.55,2021-12-17 17:38:58.875000
46,90.04,2021-12-17 17:38:58.890625
47,82.0,2021-12-17 17:38:58.906250
48,71.81,2021-12-17 17:38:58.921875
49,60.41,2021-12-17 17:38:58.937500
50,48.91,2021-12-17 17:38:58.953125
51,38.23,2021-12-17 17:38:58.968750
52,28.92,2021-12-17 17:38:58.984375
53,21.1,2021-12-17 17:38:59.000000
54,14.65,2021-12-17 17:38:59.015625
55,9.41,2021-12-17 17:38:59.031250
56,5.32,2021-12-17 17:38:59.046875
57,2.43,2021-12-17 17:38:59.062500
58,0.74,2021-12-17 17:38:59.078125
59,0.03,2021-12-17 17:38:59.093750
60,-0.17,2021-12-17 17:38:59.109375
61,-0.52,2021-12-17 17:38:59.125000
62,-1.76,2021-12-17 17:38:59.140625
63,-4.35,2021-12-17 17:38:59.156250
64,-8.4,2021-12-17 17:38:59.171875
65,-13.57,2021-12-17 17:38:59.187500
66,-19.18,2021-12-17 17:38:59.203125
67,-24.46,2021-12-17 17:38:59.218750
68,-28.64,2021-12-17 17:38:59.234375
69,-31.12,2021-12-17 17:38:59.250000
70,-31.62,2021-12-17 17:38:59.265625
71,-30.23,2021-12-17 17:38:59.281250
72,-27.37,2021-12-17 17:38:59.296875
73,-23.71,2021-12-17 17:38:59.312500
74,-19.98,2021-12-17 17:38:59.328125
75,-16.7,2021-12-17 17:38:59.343750
76,-14.11,2021-12-17 17:38:59.359375
77,-12.11,2021-12-17 17:38:59.375000
78,-10.47,2021-12-17 17:38:59.390625
79,-8.93,2021-12-17 17:38:59.406250
80,-7.5,2021-12-17 17:38:59.421875
81,-6.41,2021-12-17 17:38:59.437500
82,-6.02,2021-12-17 17:38:59.453125
83,-6.63,2021-12-17 17:38:59.468750
84,-8.4,2021-12-17 17:38:59.484375
85,-11.26,2021-12-17 17:38:59.500000
86,-14.78,2021-12-17 17:38:59.515625
87,-18.19,2021-12-17 17:38:59.531250
88,-20.36,2021-12-17 17:38:59.546875
89,-19.96,2021-12-17 17:38:59.562500
90,-15.64,2021-12-17 17:38:59.578125
91,-6.38,2021-12-17 17:38:59.593750
92,7.98,2021-12-17 17:38:59.609375
93,26.46,2021-12-17 17:38:59.625000
94,47.01,2021-12-17 17:38:59.640625
95,67.18,2021-12-17 17:38:59.656250
96,84.87,2021-12-17 17:38:59.671875
97,99.16,2021-12-17 17:38:59.687500
98,110.43,2021-12-17 17:38:59.703125
99,120.28,2021-12-17 17:38:59.718750
100,130.87,2021-12-17 17:38:59.734375
101,144.13,2021-12-17 17:38:59.750000
102,160.9,2021-12-17 17:38:59.765625
103,180.55,2021-12-17 17:38:59.781250
104,201.36,2021-12-17 17:38:59.796875
105,220.89,2021-12-17 17:38:59.812500
106,236.85,2021-12-17 17:38:59.828125
107,247.5,2021-12-17 17:38:59.843750
108,252.22,2021-12-17 17:38:59.859375
109,251.52,2021-12-17 17:38:59.875000
110,246.92,2021-12-17 17:38:59.890625
111,240.25,2021-12-17 17:38:59.906250
112,232.74,2021-12-17 17:38:59.921875
113,224.54,2021-12-17 17:38:59.937500
114,213.95,2021-12-17 17:38:59.953125
115,197.68,2021-12-17 17:38:59.968750
116,171.38,2021-12-17 17:38:59.984375
117,131.19,2021-12-17 17:39:00.000000
118,75.58,2021-12-17 17:39:00.015625
119,6.57,2021-12-17 17:39:00.031250
120,-70.28,2021-12-17 17:39:00.046875
121,-147.45,2021-12-17 17:39:00.062500
122,-217.05,2021-12-17 17:39:00.078125
123,-271.25,2021-12-17 17:39:00.093750
124,-301.53,2021-12-17 17:39:00.109375
125,-302.19,2021-12-17 17:39:00.125000
126,-273.4,2021-12-17 17:39:00.140625
127,-221.68,2021-12-17 17:39:00.156250
128,-157.07,2021-12-17 17:39:00.171875
129,-89.32,2021-12-17 17:39:00.187500
130,-27.57,2021-12-17 17:39:00.203125
131,25.47,2021-12-17 17:39:00.218750
132,68.45,2021-12-17 17:39:00.234375
133,100.24,2021-12-17 17:39:00.250000
134,119.87,2021-12-17 17:39:00.265625
135,127.14,2021-12-17 17:39:00.281250
136,123.23,2021-12-17 17:39:00.296875
137,110.07,2021-12-17 17:39:00.312500
138,90.8,2021-12-17 17:39:00.328125
139,68.39,2021-12-17 17:39:00.343750
140,45.21,2021-12-17 17:39:00.359375
141,21.87,2021-12-17 17:39:00.375000
142,-2.02,2021-12-17 17:39:00.390625
143,-27.36,2021-12-17 17:39:00.406250
144,-54.74,2021-12-17 17:39:00.421875
145,-83.74,2021-12-17 17:39:00.437500
146,-112.93,2021-12-17 17:39:00.453125
147,-140.27,2021-12-17 17:39:00.468750
148,-164.17,2021-12-17 17:39:00.484375
149,-183.88,2021-12-17 17:39:00.500000
150,-200.11,2021-12-17 17:39:00.515625
151,-214.61,2021-12-17 17:39:00.531250
152,-229.79,2021-12-17 17:39:00.546875
153,-248.15,2021-12-17 17:39:00.562500
154,-271.55,2021-12-17 17:39:00.578125
155,-300.27,2021-12-17 17:39:00.593750
156,-332.14,2021-12-17 17:39:00.609375
157,-362.7,2021-12-17 17:39:00.625000
158,-385.91,2021-12-17 17:39:00.640625
159,-396.4,2021-12-17 17:39:00.656250
160,-391.41,2021-12-17 17:39:00.671875
161,-372.09,2021-12-17 17:39:00.687500
162,-343.35,2021-12-17 17:39:00.703125
163,-311.83,2021-12-17 17:39:00.718750
164,-283.61,2021-12-17 17:39:00.734375
165,-262.22,2021-12-17 17:39:00.750000
166,-248.41,2021-12-17 17:39:00.765625
167,-240.97,2021-12-17 17:39:00.781250
168,-237.97,2021-12-17 17:39:00.796875
169,-237.24,2021-12-17 17:39:00.812500
170,-236.47,2021-12-17 17:39:00.828125
171,-233.3,2021-12-17 17:39:00.843750
172,-225.77,2021-12-17 17:39:00.859375
173,-213.39,2021-12-17 17:39:00.875000
174,-197.57,2021-12-17 17:39:00.890625
175,-181.28,2021-12-17 17:39:00.906250
176,-167.37,2021-12-17 17:39:00.921875
177,-157.01,2021-12-17 17:39:00.937500
178,-148.9,2021-12-17 17:39:00.953125
179,-139.74,2021-12-17 17:39:00.968750
180,-125.96,2021-12-17 17:39:00.984375
181,-105.34,2021-12-17 17:39:01.000000
182,-77.84,2021-12-17 17:39:01.015625
183,-45.09,2021-12-17 17:39:01.031250
184,-9.4,2021-12-17 17:39:01.046875
185,27.36,2021-12-17 17:39:01.062500
186,63.72,2021-12-17 17:39:01.078125
187,98.42,2021-12-17 17:39:01.093750
188,130.28,2021-12-17 17:39:01.109375
189,158.34,2021-12-17 17:39:01.125000
190,182.2,2021-12-17 17:39:01.140625
191,202.38,2021-12-17 17:39:01.156250
192,220.37,2021-12-17 17:39:01.171875
193,238.31,2021-12-17 17:39:01.187500
194,258.42,2021-12-17 17:39:01.203125
195,281.52,2021-12-17 17:39:01.218750
196,306.51,2021-12-17 17:39:01.234375
197,330.55,2021-12-17 17:39:01.250000
198,350.15,2021-12-17 17:39:01.265625
199,362.37,2021-12-17 17:39:01.281250
200,366.06,2021-12-17 17:39:01.296875
201,362.24,2021-12-17 17:39:01.312500
202,353.78,2021-12-17 17:39:01.328125
203,344.26,2021-12-17 17:39:01.343750
204,335.79,2021-12-17 17:39:01.359375
205,328.81,2021-12-17 17:39:01.375000
206,323.01,2021-12-17 17:39:01.390625
207,318.69,2021-12-17 17:39:01.406250
208,317.28,2021-12-17 17:39:01.421875
209,320.6,2021-12-17 17:39:01.437500
210,329.29,2021-12-17 17:39:01.453125
211,341.46,2021-12-17 17:39:01.468750
212,352.22,2021-12-17 17:39:01.484375
213,353.53,2021-12-17 17:39:01.500000
214,337.24,2021-12-17 17:39:01.515625
215,298.51,2021-12-17 17:39:01.531250
216,238.12,2021-12-17 17:39:01.546875
217,162.35,2021-12-17 17:39:01.562500
218,80.55,2021-12-17 17:39:01.578125
219,2.12,2021-12-17 17:39:01.593750
220,-70.23,2021-12-17 17:39:01.609375
221,-132.04,2021-12-17 17:39:01.625000
222,-179.26,2021-12-17 17:39:01.640625
223,-209.17,2021-12-17 17:39:01.656250
224,-221.3,2021-12-17 17:39:01.671875
225,-216.95,2021-12-17 17:39:01.687500
226,-198.42,2021-12-17 17:39:01.703125
227,-168.9,2021-12-17 17:39:01.718750
228,-132.38,2021-12-17 17:39:01.734375
229,-92.07,2021-12-17 17:39:01.750000
230,-51.31,2021-12-17 17:39:01.765625
231,-14.82,2021-12-17 17:39:01.781250
232,12.65,2021-12-17 17:39:01.796875
233,27.28,2021-12-17 17:39:01.812500
234,26.85,2021-12-17 17:39:01.828125
235,10.59,2021-12-17 17:39:01.843750
236,-20.75,2021-12-17 17:39:01.859375
237,-67.97,2021-12-17 17:39:01.875000
238,-123.64,2021-12-17 17:39:01.890625
239,-175.26,2021-12-17 17:39:01.906250
240,-210.78,2021-12-17 17:39:01.921875
241,-223.56,2021-12-17 17:39:01.937500
242,-215.03,2021-12-17 17:39:01.953125
243,-193.32,2021-12-17 17:39:01.968750
244,-169.11,2021-12-17 17:39:01.984375
245,-151.06,2021-12-17 17:39:02.000000
246,-142.77,2021-12-17 17:39:02.015625
247,-142.33,2021-12-17 17:39:02.031250
248,-145.92,2021-12-17 17:39:02.046875
249,-151.0,2021-12-17 17:39:02.062500
250,-157.03,2021-12-17 17:39:02.078125
251,-164.67,2021-12-17 17:39:02.093750
252,-174.18,2021-12-17 17:39:02.109375
253,-184.32,2021-12-17 17:39:02.125000
254,-192.66,2021-12-17 17:39:02.140625
255,-197.68,2021-12-17 17:39:02.156250
256,-196.93,2021-12-17 17:39:02.171875
257,-189.8,2021-12-17 17:39:02.187500
258,-177.71,2021-12-17 17:39:02.203125
259,-162.81,2021-12-17 17:39:02.218750
260,-147.01,2021-12-17 17:39:02.234375
261,-131.49,2021-12-17 17:39:02.250000
262,-116.64,2021-12-17 17:39:02.265625
263,-102.5,2021-12-17 17:39:02.281250
264,-88.98,2021-12-17 17:39:02.296875
265,-75.62,2021-12-17 17:39:02.312500
266,-62.37,2021-12-17 17:39:02.328125
267,-49.78,2021-12-17 17:39:02.343750
268,-37.66,2021-12-17 17:39:02.359375
269,-25.74,2021-12-17 17:39:02.375000
270,-13.72,2021-12-17 17:39:02.390625
271,-1.4,2021-12-17 17:39:02.406250
272,11.58,2021-12-17 17:39:02.421875
273,26.27,2021-12-17 17:39:02.437500
274,42.42,2021-12-17 17:39:02.453125
275,60.75,2021-12-17 17:39:02.468750
276,81.7,2021-12-17 17:39:02.484375
277,106.76,2021-12-17 17:39:02.500000
278,136.36,2021-12-17 17:39:02.515625
279,169.37,2021-12-17 17:39:02.531250
280,203.34,2021-12-17 17:39:02.546875
281,235.25,2021-12-17 17:39:02.562500
282,262.81,2021-12-17 17:39:02.578125
283,285.3,2021-12-17 17:39:02.593750
284,303.46,2021-12-17 17:39:02.609375
285,318.19,2021-12-17 17:39:02.625000
286,332.9,2021-12-17 17:39:02.640625
287,351.0,2021-12-17 17:39:02.656250
288,374.93,2021-12-17 17:39:02.671875
289,405.03,2021-12-17 17:39:02.687500
290,438.84,2021-12-17 17:39:02.703125
291,471.21,2021-12-17 17:39:02.718750
292,495.5,2021-12-17 17:39:02.734375
293,505.75,2021-12-17 17:39:02.750000
294,487.44,2021-12-17 17:39:02.765625
295,435.73,2021-12-17 17:39:02.781250
296,356.62,2021-12-17 17:39:02.796875
297,265.78,2021-12-17 17:39:02.812500
298,181.32,2021-12-17 17:39:02.828125
299,115.56,2021-12-17 17:39:02.843750
300,71.22,2021-12-17 17:39:02.859375
301,43.77,2021-12-17 17:39:02.875000
302,29.33,2021-12-17 17:39:02.890625
303,21.21,2021-12-17 17:39:02.906250
304,16.86,2021-12-17 17:39:02.921875
305,14.84,2021-12-17 17:39:02.937500
306,12.95,2021-12-17 17:39:02.953125
307,7.64,2021-12-17 17:39:02.968750
308,-4.73,2021-12-17 17:39:02.984375
309,-26.34,2021-12-17 17:39:03.000000
310,-56.87,2021-12-17 17:39:03.015625
311,-92.8,2021-12-17 17:39:03.031250
312,-129.83,2021-12-17 17:39:03.046875
313,-162.44,2021-12-17 17:39:03.062500
314,-186.78,2021-12-17 17:39:03.078125
315,-201.33,2021-12-17 17:39:03.093750
316,-206.4,2021-12-17 17:39:03.109375
317,-203.03,2021-12-17 17:39:03.125000
318,-191.9,2021-12-17 17:39:03.140625
319,-172.95,2021-12-17 17:39:03.156250
320,-146.02,2021-12-17 17:39:03.171875
321,-112.56,2021-12-17 17:39:03.187500
322,-74.62,2021-12-17 17:39:03.203125
323,-36.1,2021-12-17 17:39:03.218750
324,-2.02,2021-12-17 17:39:03.234375
325,22.7,2021-12-17 17:39:03.250000
326,34.55,2021-12-17 17:39:03.265625
327,32.14,2021-12-17 17:39:03.281250
328,16.26,2021-12-17 17:39:03.296875
329,-10.95,2021-12-17 17:39:03.312500
330,-47.48,2021-12-17 17:39:03.328125
331,-91.13,2021-12-17 17:39:03.343750
332,-140.49,2021-12-17 17:39:03.359375
333,-195.05,2021-12-17 17:39:03.375000
334,-255.07,2021-12-17 17:39:03.390625
335,-320.92,2021-12-17 17:39:03.406250
336,-391.76,2021-12-17 17:39:03.421875
337,-464.28,2021-12-17 17:39:03.437500
338,-532.04,2021-12-17 17:39:03.453125
339,-586.71,2021-12-17 17:39:03.468750
340,-619.91,2021-12-17 17:39:03.484375
341,-626.47,2021-12-17 17:39:03.500000
342,-606.64,2021-12-17 17:39:03.515625
343,-565.98,2021-12-17 17:39:03.531250
344,-513.21,2021-12-17 17:39:03.546875
345,-456.78,2021-12-17 17:39:03.562500
346,-402.18,2021-12-17 17:39:03.578125
347,-351.17,2021-12-17 17:39:03.593750
348,-303.11,2021-12-17 17:39:03.609375
349,-256.74,2021-12-17 17:39:03.625000
350,-211.6,2021-12-17 17:39:03.640625
351,-168.08,2021-12-17 17:39:03.656250
352,-126.52,2021-12-17 17:39:03.671875
353,-86.24,2021-12-17 17:39:03.687500
354,-45.58,2021-12-17 17:39:03.703125
355,-2.88,2021-12-17 17:39:03.718750
356,42.43,2021-12-17 17:39:03.734375
357,89.26,2021-12-17 17:39:03.750000
358,135.45,2021-12-17 17:39:03.765625
359,178.45,2021-12-17 17:39:03.781250
360,216.45,2021-12-17 17:39:03.796875
361,248.62,2021-12-17 17:39:03.812500
362,274.94,2021-12-17 17:39:03.828125
363,295.57,2021-12-17 17:39:03.843750
364,310.31,2021-12-17 17:39:03.859375
365,318.46,2021-12-17 17:39:03.875000
366,318.82,2021-12-17 17:39:03.890625
367,310.1,2021-12-17 17:39:03.906250
368,291.37,2021-12-17 17:39:03.921875
369,262.6,2021-12-17 17:39:03.937500
370,225.22,2021-12-17 17:39:03.953125
371,182.38,2021-12-17 17:39:03.968750
372,138.72,2021-12-17 17:39:03.984375
373,99.59,2021-12-17 17:39:04.000000
374,69.74,2021-12-17 17:39:04.015625
375,51.73,2021-12-17 17:39:04.031250
376,44.68,2021-12-17 17:39:04.046875
377,44.29,2021-12-17 17:39:04.062500
378,44.19,2021-12-17 17:39:04.078125
379,38.57,2021-12-17 17:39:04.093750
380,24.94,2021-12-17 17:39:04.109375
381,5.59,2021-12-17 17:39:04.125000
382,-13.04,2021-12-17 17:39:04.140625
383,-23.36,2021-12-17 17:39:04.156250
384,-20.17,2021-12-17 17:39:04.171875
385,-3.49,2021-12-17 17:39:04.187500
386,21.13,2021-12-17 17:39:04.203125
387,44.61,2021-12-17 17:39:04.218750
388,57.88,2021-12-17 17:39:04.234375
389,54.96,2021-12-17 17:39:04.250000
390,34.5,2021-12-17 17:39:04.265625
391,-0.65,2021-12-17 17:39:04.281250
392,-44.9,2021-12-17 17:39:04.296875
393,-91.53,2021-12-17 17:39:04.312500
394,-133.74,2021-12-17 17:39:04.328125
395,-165.28,2021-12-17 17:39:04.343750
396,-181.11,2021-12-17 17:39:04.359375
397,-178.24,2021-12-17 17:39:04.375000
398,-156.48,2021-12-17 17:39:04.390625
399,-118.56,2021-12-17 17:39:04.406250
400,-69.49,2021-12-17 17:39:04.421875
401,-15.35,2021-12-17 17:39:04.437500
402,38.14,2021-12-17 17:39:04.453125
403,86.87,2021-12-17 17:39:04.468750
404,128.86,2021-12-17 17:39:04.484375
405,164.21,2021-12-17 17:39:04.500000
406,194.81,2021-12-17 17:39:04.515625
407,223.55,2021-12-17 17:39:04.531250
408,253.68,2021-12-17 17:39:04.546875
409,288.42,2021-12-17 17:39:04.562500
410,330.29,2021-12-17 17:39:04.578125
411,380.28,2021-12-17 17:39:04.593750
412,436.81,2021-12-17 17:39:04.609375
413,495.11,2021-12-17 17:39:04.625000
414,547.49,2021-12-17 17:39:04.640625
415,584.99,2021-12-17 17:39:04.656250
416,600.21,2021-12-17 17:39:04.671875
417,589.84,2021-12-17 17:39:04.687500
418,556.15,2021-12-17 17:39:04.703125
419,506.09,2021-12-17 17:39:04.718750
420,448.65,2021-12-17 17:39:04.734375
421,391.6,2021-12-17 17:39:04.750000
422,339.27,2021-12-17 17:39:04.765625
423,292.3,2021-12-17 17:39:04.781250
424,249.06,2021-12-17 17:39:04.796875
425,207.77,2021-12-17 17:39:04.812500
426,167.84,2021-12-17 17:39:04.828125
427,129.94,2021-12-17 17:39:04.843750
428,95.11,2021-12-17 17:39:04.859375
429,63.48,2021-12-17 17:39:04.875000
430,33.74,2021-12-17 17:39:04.890625
431,3.41,2021-12-17 17:39:04.906250
432,-30.03,2021-12-17 17:39:04.921875
433,-67.93,2021-12-17 17:39:04.937500
434,-109.78,2021-12-17 17:39:04.953125
435,-153.32,2021-12-17 17:39:04.968750
436,-195.68,2021-12-17 17:39:04.984375
437,-234.78,2021-12-17 17:39:05.000000
438,-270.23,2021-12-17 17:39:05.015625
439,-303.42,2021-12-17 17:39:05.031250
440,-336.66,2021-12-17 17:39:05.046875
441,-371.91,2021-12-17 17:39:05.062500
442,-409.97,2021-12-17 17:39:05.078125
443,-450.62,2021-12-17 17:39:05.093750
444,-493.61,2021-12-17 17:39:05.109375
445,-539.24,2021-12-17 17:39:05.125000
446,-587.85,2021-12-17 17:39:05.140625
447,-638.3,2021-12-17 17:39:05.156250
448,-686.41,2021-12-17 17:39:05.171875
449,-724.79,2021-12-17 17:39:05.187500
450,-744.81,2021-12-17 17:39:05.203125
451,-739.95,2021-12-17 17:39:05.218750
452,-708.87,2021-12-17 17:39:05.234375
453,-656.3,2021-12-17 17:39:05.250000
454,-591.27,2021-12-17 17:39:05.265625
455,-523.49,2021-12-17 17:39:05.281250
456,-459.99,2021-12-17 17:39:05.296875
457,-403.43,2021-12-17 17:39:05.312500
458,-352.78,2021-12-17 17:39:05.328125
459,-305.45,2021-12-17 17:39:05.343750
460,-259.34,2021-12-17 17:39:05.359375
461,-213.8,2021-12-17 17:39:05.375000
462,-169.28,2021-12-17 17:39:05.390625
463,-126.26,2021-12-17 17:39:05.406250
464,-84.41,2021-12-17 17:39:05.421875
465,-42.67,2021-12-17 17:39:05.437500
466,0.18,2021-12-17 17:39:05.453125
467,44.79,2021-12-17 17:39:05.468750
468,90.88,2021-12-17 17:39:05.484375
469,137.24,2021-12-17 17:39:05.500000
470,182.66,2021-12-17 17:39:05.515625
471,226.52,2021-12-17 17:39:05.531250
472,269.09,2021-12-17 17:39:05.546875
473,311.05,2021-12-17 17:39:05.562500
474,352.36,2021-12-17 17:39:05.578125
475,391.47,2021-12-17 17:39:05.593750
476,425.19,2021-12-17 17:39:05.609375
477,449.71,2021-12-17 17:39:05.625000
478,462.16,2021-12-17 17:39:05.640625
479,462.06,2021-12-17 17:39:05.656250
480,451.57,2021-12-17 17:39:05.671875
481,434.65,2021-12-17 17:39:05.687500
482,415.6,2021-12-17 17:39:05.703125
483,397.75,2021-12-17 17:39:05.718750
484,383.17,2021-12-17 17:39:05.734375
485,373.19,2021-12-17 17:39:05.750000
486,369.09,2021-12-17 17:39:05.765625
487,372.26,2021-12-17 17:39:05.781250
488,383.41,2021-12-17 17:39:05.796875
489,401.22,2021-12-17 17:39:05.812500
490,421.59,2021-12-17 17:39:05.828125
491,437.94,2021-12-17 17:39:05.843750
492,443.08,2021-12-17 17:39:05.859375
493,431.61,2021-12-17 17:39:05.875000
494,401.79,2021-12-17 17:39:05.890625
495,356.05,2021-12-17 17:39:05.906250
496,299.74,2021-12-17 17:39:05.921875
497,238.92,2021-12-17 17:39:05.937500
498,178.19,2021-12-17 17:39:05.953125
499,119.58,2021-12-17 17:39:05.968750
500,62.97,2021-12-17 17:39:05.984375
501,7.33,2021-12-17 17:39:06.000000
502,-47.74,2021-12-17 17:39:06.015625
503,-101.35,2021-12-17 17:39:06.031250
504,-151.76,2021-12-17 17:39:06.046875
505,-197.28,2021-12-17 17:39:06.062500
506,-237.38,2021-12-17 17:39:06.078125
507,-273.03,2021-12-17 17:39:06.093750
508,-306.31,2021-12-17 17:39:06.109375
509,-339.68,2021-12-17 17:39:06.125000
510,-375.39,2021-12-17 17:39:06.140625
511,-415.11,2021-12-17 17:39:06.156250
512,-459.9,2021-12-17 17:39:06.171875
513,-509.52,2021-12-17 17:39:06.187500
514,-561.55,2021-12-17 17:39:06.203125
515,-610.8,2021-12-17 17:39:06.218750
516,-649.8,2021-12-17 17:39:06.234375
517,-670.81,2021-12-17 17:39:06.250000
518,-668.65,2021-12-17 17:39:06.265625
519,-642.96,2021-12-17 17:39:06.281250
520,-598.54,2021-12-17 17:39:06.296875
521,-543.62,2021-12-17 17:39:06.312500
522,-486.66,2021-12-17 17:39:06.328125
523,-433.44,2021-12-17 17:39:06.343750
524,-385.97,2021-12-17 17:39:06.359375
525,-343.21,2021-12-17 17:39:06.375000
526,-302.99,2021-12-17 17:39:06.390625
527,-263.58,2021-12-17 17:39:06.406250
528,-224.25,2021-12-17 17:39:06.421875
529,-184.65,2021-12-17 17:39:06.437500
530,-144.17,2021-12-17 17:39:06.453125
531,-101.75,2021-12-17 17:39:06.468750
532,-56.22,2021-12-17 17:39:06.484375
533,-7.17,2021-12-17 17:39:06.500000
534,44.93,2021-12-17 17:39:06.515625
535,99.24,2021-12-17 17:39:06.531250
536,154.88,2021-12-17 17:39:06.546875
537,211.39,2021-12-17 17:39:06.562500
538,268.14,2021-12-17 17:39:06.578125
539,323.32,2021-12-17 17:39:06.593750
540,373.6,2021-12-17 17:39:06.609375
541,414.6,2021-12-17 17:39:06.625000
542,442.31,2021-12-17 17:39:06.640625
543,454.65,2021-12-17 17:39:06.656250
544,452.07,2021-12-17 17:39:06.671875
545,437.08,2021-12-17 17:39:06.687500
546,413.2,2021-12-17 17:39:06.703125
547,384.03,2021-12-17 17:39:06.718750
548,352.89,2021-12-17 17:39:06.734375
549,322.97,2021-12-17 17:39:06.750000
550,297.3,2021-12-17 17:39:06.765625
551,277.94,2021-12-17 17:39:06.781250
552,265.05,2021-12-17 17:39:06.796875
553,256.3,2021-12-17 17:39:06.812500
554,247.51,2021-12-17 17:39:06.828125
555,234.93,2021-12-17 17:39:06.843750
556,217.43,2021-12-17 17:39:06.859375
557,197.41,2021-12-17 17:39:06.875000
558,179.68,2021-12-17 17:39:06.890625
559,168.88,2021-12-17 17:39:06.906250
560,167.07,2021-12-17 17:39:06.921875
561,172.81,2021-12-17 17:39:06.937500
562,181.97,2021-12-17 17:39:06.953125
563,189.65,2021-12-17 17:39:06.968750
564,192.18,2021-12-17 17:39:06.984375
565,187.97,2021-12-17 17:39:07.000000
566,177.24,2021-12-17 17:39:07.015625
567,161.03,2021-12-17 17:39:07.031250
568,140.16,2021-12-17 17:39:07.046875
569,114.84,2021-12-17 17:39:07.062500
570,85.33,2021-12-17 17:39:07.078125
571,52.79,2021-12-17 17:39:07.093750
572,20.0,2021-12-17 17:39:07.109375
573,-9.02,2021-12-17 17:39:07.125000
574,-30.24,2021-12-17 17:39:07.140625
575,-41.28,2021-12-17 17:39:07.156250
576,-42.35,2021-12-17 17:39:07.171875
577,-36.29,2021-12-17 17:39:07.187500
578,-27.4,2021-12-17 17:39:07.203125
579,-19.6,2021-12-17 17:39:07.218750
580,-14.99,2021-12-17 17:39:07.234375
581,-13.55,2021-12-17 17:39:07.250000
582,-13.92,2021-12-17 17:39:07.265625
583,-14.77,2021-12-17 17:39:07.281250
584,-15.85,2021-12-17 17:39:07.296875
585,-17.92,2021-12-17 17:39:07.312500
586,-22.14,2021-12-17 17:39:07.328125
587,-28.76,2021-12-17 17:39:07.343750
588,-36.63,2021-12-17 17:39:07.359375
589,-43.35,2021-12-17 17:39:07.375000
590,-46.43,2021-12-17 17:39:07.390625
591,-44.62,2021-12-17 17:39:07.406250
592,-38.69,2021-12-17 17:39:07.421875
593,-31.32,2021-12-17 17:39:07.437500
594,-25.83,2021-12-17 17:39:07.453125
595,-24.67,2021-12-17 17:39:07.468750
596,-28.19,2021-12-17 17:39:07.484375
597,-34.58,2021-12-17 17:39:07.500000
598,-40.65,2021-12-17 17:39:07.515625
599,-42.96,2021-12-17 17:39:07.531250
600,-38.96,2021-12-17 17:39:07.546875
601,-27.64,2021-12-17 17:39:07.562500
602,-9.73,2021-12-17 17:39:07.578125
603,12.26,2021-12-17 17:39:07.593750
604,34.54,2021-12-17 17:39:07.609375
605,52.98,2021-12-17 17:39:07.625000
606,64.16,2021-12-17 17:39:07.640625
607,66.27,2021-12-17 17:39:07.656250
608,59.69,2021-12-17 17:39:07.671875
609,46.38,2021-12-17 17:39:07.687500
610,29.21,2021-12-17 17:39:07.703125
611,11.33,2021-12-17 17:39:07.718750
612,-4.01,2021-12-17 17:39:07.734375
613,-13.6,2021-12-17 17:39:07.750000
614,-14.51,2021-12-17 17:39:07.765625
615,-5.06,2021-12-17 17:39:07.781250
616,14.35,2021-12-17 17:39:07.796875
617,40.92,2021-12-17 17:39:07.812500
618,69.82,2021-12-17 17:39:07.828125
619,95.78,2021-12-17 17:39:07.843750
620,114.5,2021-12-17 17:39:07.859375
621,123.84,2021-12-17 17:39:07.875000
622,123.66,2021-12-17 17:39:07.890625
623,115.21,2021-12-17 17:39:07.906250
624,100.13,2021-12-17 17:39:07.921875
625,80.01,2021-12-17 17:39:07.937500
626,56.5,2021-12-17 17:39:07.953125
627,31.29,2021-12-17 17:39:07.968750
628,6.25,2021-12-17 17:39:07.984375
629,-17.05,2021-12-17 17:39:08.000000
630,-37.63,2021-12-17 17:39:08.015625
631,-55.27,2021-12-17 17:39:08.031250
632,-70.43,2021-12-17 17:39:08.046875
633,-84.17,2021-12-17 17:39:08.062500
634,-97.51,2021-12-17 17:39:08.078125
635,-111.52,2021-12-17 17:39:08.093750
636,-127.32,2021-12-17 17:39:08.109375
637,-145.73,2021-12-17 17:39:08.125000
638,-167.07,2021-12-17 17:39:08.140625
639,-190.9,2021-12-17 17:39:08.156250
640,-216.04,2021-12-17 17:39:08.171875
641,-240.52,2021-12-17 17:39:08.187500
642,-261.82,2021-12-17 17:39:08.203125
643,-277.29,2021-12-17 17:39:08.218750
644,-285.16,2021-12-17 17:39:08.234375
645,-285.4,2021-12-17 17:39:08.250000
646,-279.96,2021-12-17 17:39:08.265625
647,-272.46,2021-12-17 17:39:08.281250
648,-267.06,2021-12-17 17:39:08.296875
649,-266.81,2021-12-17 17:39:08.312500
650,-272.07,2021-12-17 17:39:08.328125
651,-279.98,2021-12-17 17:39:08.343750
652,-285.26,2021-12-17 17:39:08.359375
653,-282.08,2021-12-17 17:39:08.375000
654,-266.43,2021-12-17 17:39:08.390625
655,-237.55,2021-12-17 17:39:08.406250
656,-197.99,2021-12-17 17:39:08.421875
657,-152.41,2021-12-17 17:39:08.437500
658,-105.72,2021-12-17 17:39:08.453125
659,-61.49,2021-12-17 17:39:08.468750
660,-21.31,2021-12-17 17:39:08.484375
661,14.72,2021-12-17 17:39:08.500000
662,47.34,2021-12-17 17:39:08.515625
663,77.46,2021-12-17 17:39:08.531250
664,105.53,2021-12-17 17:39:08.546875
665,130.94,2021-12-17 17:39:08.562500
666,152.27,2021-12-17 17:39:08.578125
667,167.57,2021-12-17 17:39:08.593750
668,174.87,2021-12-17 17:39:08.609375
669,172.62,2021-12-17 17:39:08.625000
670,160.33,2021-12-17 17:39:08.640625
671,138.88,2021-12-17 17:39:08.656250
672,110.63,2021-12-17 17:39:08.671875
673,79.08,2021-12-17 17:39:08.687500
674,48.08,2021-12-17 17:39:08.703125
675,21.17,2021-12-17 17:39:08.718750
676,0.87,2021-12-17 17:39:08.734375
677,-11.52,2021-12-17 17:39:08.750000
678,-15.82,2021-12-17 17:39:08.765625
679,-12.71,2021-12-17 17:39:08.781250
680,-3.55,2021-12-17 17:39:08.796875
681,9.77,2021-12-17 17:39:08.812500
682,24.73,2021-12-17 17:39:08.828125
683,38.32,2021-12-17 17:39:08.843750
684,47.57,2021-12-17 17:39:08.859375
685,50.47,2021-12-17 17:39:08.875000
686,47.0,2021-12-17 17:39:08.890625
687,39.32,2021-12-17 17:39:08.906250
688,30.97,2021-12-17 17:39:08.921875
689,25.22,2021-12-17 17:39:08.937500
690,24.0,2021-12-17 17:39:08.953125
691,26.81,2021-12-17 17:39:08.968750
692,31.72,2021-12-17 17:39:08.984375
693,36.18,2021-12-17 17:39:09.000000
694,38.5,2021-12-17 17:39:09.015625
695,38.23,2021-12-17 17:39:09.031250
696,35.94,2021-12-17 17:39:09.046875
697,32.45,2021-12-17 17:39:09.062500
698,28.24,2021-12-17 17:39:09.078125
699,23.37,2021-12-17 17:39:09.093750
700,17.71,2021-12-17 17:39:09.109375
701,11.53,2021-12-17 17:39:09.125000
702,5.04,2021-12-17 17:39:09.140625
703,-1.18,2021-12-17 17:39:09.156250
704,-6.55,2021-12-17 17:39:09.171875
705,-10.22,2021-12-17 17:39:09.187500
706,-11.38,2021-12-17 17:39:09.203125
707,-9.65,2021-12-17 17:39:09.218750
708,-5.32,2021-12-17 17:39:09.234375
709,0.58,2021-12-17 17:39:09.250000
710,6.43,2021-12-17 17:39:09.265625
711,10.23,2021-12-17 17:39:09.281250
712,10.16,2021-12-17 17:39:09.296875
713,4.95,2021-12-17 17:39:09.312500
714,-5.69,2021-12-17 17:39:09.328125
715,-21.07,2021-12-17 17:39:09.343750
716,-39.71,2021-12-17 17:39:09.359375
717,-59.28,2021-12-17 17:39:09.375000
718,-76.77,2021-12-17 17:39:09.390625
719,-89.42,2021-12-17 17:39:09.406250
720,-96.08,2021-12-17 17:39:09.421875
721,-97.84,2021-12-17 17:39:09.437500
722,-97.52,2021-12-17 17:39:09.453125
723,-98.83,2021-12-17 17:39:09.468750
724,-104.62,2021-12-17 17:39:09.484375
725,-115.95,2021-12-17 17:39:09.500000
726,-130.63,2021-12-17 17:39:09.515625
727,-143.57,2021-12-17 17:39:09.531250
728,-148.28,2021-12-17 17:39:09.546875
729,-139.39,2021-12-17 17:39:09.562500
730,-114.41,2021-12-17 17:39:09.578125
731,-74.63,2021-12-17 17:39:09.593750
732,-24.77,2021-12-17 17:39:09.609375
733,28.68,2021-12-17 17:39:09.625000
734,77.84,2021-12-17 17:39:09.640625
735,113.1,2021-12-17 17:39:09.656250
736,127.04,2021-12-17 17:39:09.671875
737,118.26,2021-12-17 17:39:09.687500
738,91.4,2021-12-17 17:39:09.703125
739,53.69,2021-12-17 17:39:09.718750
740,11.54,2021-12-17 17:39:09.734375
741,-30.7,2021-12-17 17:39:09.750000
742,-69.39,2021-12-17 17:39:09.765625
743,-103.82,2021-12-17 17:39:09.781250
744,-132.75,2021-12-17 17:39:09.796875
745,-154.31,2021-12-17 17:39:09.812500
746,-166.83,2021-12-17 17:39:09.828125
747,-169.86,2021-12-17 17:39:09.843750
748,-164.3,2021-12-17 17:39:09.859375
749,-151.77,2021-12-17 17:39:09.875000
750,-133.35,2021-12-17 17:39:09.890625
751,-110.15,2021-12-17 17:39:09.906250
752,-83.16,2021-12-17 17:39:09.921875
753,-52.71,2021-12-17 17:39:09.937500
754,-18.62,2021-12-17 17:39:09.953125
755,19.18,2021-12-17 17:39:09.968750
756,60.19,2021-12-17 17:39:09.984375
757,102.96,2021-12-17 17:39:10.000000
758,145.54,2021-12-17 17:39:10.015625
759,185.95,2021-12-17 17:39:10.031250
760,222.64,2021-12-17 17:39:10.046875
761,254.63,2021-12-17 17:39:10.062500
762,281.98,2021-12-17 17:39:10.078125
763,305.68,2021-12-17 17:39:10.093750
764,327.0,2021-12-17 17:39:10.109375
765,347.24,2021-12-17 17:39:10.125000
766,367.37,2021-12-17 17:39:10.140625
767,388.2,2021-12-17 17:39:10.156250
768,410.35,2021-12-17 17:39:10.171875
769,433.64,2021-12-17 17:39:10.187500
770,456.54,2021-12-17 17:39:10.203125
771,476.2,2021-12-17 17:39:10.218750
772,488.74,2021-12-17 17:39:10.234375
773,490.21,2021-12-17 17:39:10.250000
774,477.93,2021-12-17 17:39:10.265625
775,451.26,2021-12-17 17:39:10.281250
776,411.81,2021-12-17 17:39:10.296875
777,362.85,2021-12-17 17:39:10.312500
778,308.08,2021-12-17 17:39:10.328125
779,250.74,2021-12-17 17:39:10.343750
780,193.32,2021-12-17 17:39:10.359375
781,137.61,2021-12-17 17:39:10.375000
782,85.05,2021-12-17 17:39:10.390625
783,36.77,2021-12-17 17:39:10.406250
784,-6.62,2021-12-17 17:39:10.421875
785,-45.34,2021-12-17 17:39:10.437500
786,-80.45,2021-12-17 17:39:10.453125
787,-113.67,2021-12-17 17:39:10.468750
788,-146.64,2021-12-17 17:39:10.484375
789,-180.12,2021-12-17 17:39:10.500000
790,-213.78,2021-12-17 17:39:10.515625
791,-246.31,2021-12-17 17:39:10.531250
792,-275.83,2021-12-17 17:39:10.546875
793,-300.85,2021-12-17 17:39:10.562500
794,-320.88,2021-12-17 17:39:10.578125
795,-336.6,2021-12-17 17:39:10.593750
796,-349.89,2021-12-17 17:39:10.609375
797,-363.47,2021-12-17 17:39:10.625000
798,-380.55,2021-12-17 17:39:10.640625
799,-404.13,2021-12-17 17:39:10.656250
800,-435.61,2021-12-17 17:39:10.671875
801,-473.39,2021-12-17 17:39:10.687500
802,-512.04,2021-12-17 17:39:10.703125
803,-543.03,2021-12-17 17:39:10.718750
804,-557.26,2021-12-17 17:39:10.734375
805,-548.59,2021-12-17 17:39:10.750000
806,-516.4,2021-12-17 17:39:10.765625
807,-466.09,2021-12-17 17:39:10.781250
808,-407.05,2021-12-17 17:39:10.796875
809,-348.77,2021-12-17 17:39:10.812500
810,-297.57,2021-12-17 17:39:10.828125
811,-255.25,2021-12-17 17:39:10.843750
812,-219.97,2021-12-17 17:39:10.859375
813,-188.54,2021-12-17 17:39:10.875000
814,-158.5,2021-12-17 17:39:10.890625
815,-128.7,2021-12-17 17:39:10.906250
816,-98.58,2021-12-17 17:39:10.921875
817,-67.28,2021-12-17 17:39:10.937500
818,-33.28,2021-12-17 17:39:10.953125
819,4.51,2021-12-17 17:39:10.968750
820,45.38,2021-12-17 17:39:10.984375
821,86.35,2021-12-17 17:39:11.000000
822,123.02,2021-12-17 17:39:11.015625
823,151.56,2021-12-17 17:39:11.031250
824,170.94,2021-12-17 17:39:11.046875
825,183.6,2021-12-17 17:39:11.062500
826,194.14,2021-12-17 17:39:11.078125
827,206.91,2021-12-17 17:39:11.093750
828,223.56,2021-12-17 17:39:11.109375
829,242.35,2021-12-17 17:39:11.125000
830,259.28,2021-12-17 17:39:11.140625
831,270.41,2021-12-17 17:39:11.156250
832,273.84,2021-12-17 17:39:11.171875
833,270.3,2021-12-17 17:39:11.187500
834,262.13,2021-12-17 17:39:11.203125
835,251.72,2021-12-17 17:39:11.218750
836,240.3,2021-12-17 17:39:11.234375
837,228.0,2021-12-17 17:39:11.250000
838,214.54,2021-12-17 17:39:11.265625
839,200.11,2021-12-17 17:39:11.281250
840,185.49,2021-12-17 17:39:11.296875
841,171.64,2021-12-17 17:39:11.312500
842,159.02,2021-12-17 17:39:11.328125
843,147.28,2021-12-17 17:39:11.343750
844,135.68,2021-12-17 17:39:11.359375
845,123.69,2021-12-17 17:39:11.375000
846,111.68,2021-12-17 17:39:11.390625
847,100.86,2021-12-17 17:39:11.406250
848,92.82,2021-12-17 17:39:11.421875
849,88.8,2021-12-17 17:39:11.437500
850,89.07,2021-12-17 17:39:11.453125
851,92.91,2021-12-17 17:39:11.468750
852,98.94,2021-12-17 17:39:11.484375
853,105.91,2021-12-17 17:39:11.500000
854,113.06,2021-12-17 17:39:11.515625
855,120.35,2021-12-17 17:39:11.531250
856,128.1,2021-12-17 17:39:11.546875
857,136.6,2021-12-17 17:39:11.562500
858,145.71,2021-12-17 17:39:11.578125
859,154.79,2021-12-17 17:39:11.593750
860,163.03,2021-12-17 17:39:11.609375
861,169.84,2021-12-17 17:39:11.625000
862,175.29,2021-12-17 17:39:11.640625
863,180.12,2021-12-17 17:39:11.656250
864,185.61,2021-12-17 17:39:11.671875
865,193.16,2021-12-17 17:39:11.687500
866,203.71,2021-12-17 17:39:11.703125
867,217.35,2021-12-17 17:39:11.718750
868,232.73,2021-12-17 17:39:11.734375
869,247.11,2021-12-17 17:39:11.750000
870,256.61,2021-12-17 17:39:11.765625
871,257.18,2021-12-17 17:39:11.781250
872,245.78,2021-12-17 17:39:11.796875
873,221.57,2021-12-17 17:39:11.812500
874,186.25,2021-12-17 17:39:11.828125
875,143.49,2021-12-17 17:39:11.843750
876,97.59,2021-12-17 17:39:11.859375
877,51.93,2021-12-17 17:39:11.875000
878,8.14,2021-12-17 17:39:11.890625
879,-33.69,2021-12-17 17:39:11.906250
880,-74.08,2021-12-17 17:39:11.921875
881,-112.95,2021-12-17 17:39:11.937500
882,-149.11,2021-12-17 17:39:11.953125
883,-180.8,2021-12-17 17:39:11.968750
884,-206.6,2021-12-17 17:39:11.984375
885,-226.47,2021-12-17 17:39:12.000000
886,-242.18,2021-12-17 17:39:12.015625
887,-256.76,2021-12-17 17:39:12.031250
888,-273.56,2021-12-17 17:39:12.046875
889,-295.53,2021-12-17 17:39:12.062500
890,-325.0,2021-12-17 17:39:12.078125
891,-363.46,2021-12-17 17:39:12.093750
892,-411.18,2021-12-17 17:39:12.109375
893,-466.31,2021-12-17 17:39:12.125000
894,-524.2,2021-12-17 17:39:12.140625
895,-577.56,2021-12-17 17:39:12.156250
896,-617.97,2021-12-17 17:39:12.171875
897,-638.32,2021-12-17 17:39:12.187500
898,-635.17,2021-12-17 17:39:12.203125
899,-609.56,2021-12-17 17:39:12.218750
900,-566.17,2021-12-17 17:39:12.234375
901,-511.24,2021-12-17 17:39:12.250000
902,-450.42,2021-12-17 17:39:12.265625
903,-387.66,2021-12-17 17:39:12.281250
904,-325.74,2021-12-17 17:39:12.296875
905,-266.99,2021-12-17 17:39:12.312500
906,-213.97,2021-12-17 17:39:12.328125
907,-168.97,2021-12-17 17:39:12.343750
908,-132.9,2021-12-17 17:39:12.359375
909,-104.06,2021-12-17 17:39:12.375000
910,-78.18,2021-12-17 17:39:12.390625
911,-49.65,2021-12-17 17:39:12.406250
912,-14.23,2021-12-17 17:39:12.421875
913,28.3,2021-12-17 17:39:12.437500
914,73.1,2021-12-17 17:39:12.453125
915,110.82,2021-12-17 17:39:12.468750
916,130.71,2021-12-17 17:39:12.484375
917,124.34,2021-12-17 17:39:12.500000
918,89.08,2021-12-17 17:39:12.515625
919,29.63,2021-12-17 17:39:12.531250
920,-42.76,2021-12-17 17:39:12.546875
921,-113.26,2021-12-17 17:39:12.562500
922,-167.63,2021-12-17 17:39:12.578125
923,-195.9,2021-12-17 17:39:12.593750
924,-194.77,2021-12-17 17:39:12.609375
925,-167.69,2021-12-17 17:39:12.625000
926,-122.98,2021-12-17 17:39:12.640625
927,-70.72,2021-12-17 17:39:12.656250
928,-19.75,2021-12-17 17:39:12.671875
929,24.41,2021-12-17 17:39:12.687500
930,59.97,2021-12-17 17:39:12.703125
931,87.85,2021-12-17 17:39:12.718750
932,110.25,2021-12-17 17:39:12.734375
933,129.5,2021-12-17 17:39:12.750000
934,147.59,2021-12-17 17:39:12.765625
935,166.44,2021-12-17 17:39:12.781250
936,187.49,2021-12-17 17:39:12.796875
937,210.82,2021-12-17 17:39:12.812500
938,234.48,2021-12-17 17:39:12.828125
939,254.51,2021-12-17 17:39:12.843750
940,266.5,2021-12-17 17:39:12.859375
941,267.76,2021-12-17 17:39:12.875000
942,258.99,2021-12-17 17:39:12.890625
943,244.49,2021-12-17 17:39:12.906250
944,230.53,2021-12-17 17:39:12.921875
945,222.41,2021-12-17 17:39:12.937500
946,222.14,2021-12-17 17:39:12.953125
947,227.61,2021-12-17 17:39:12.968750
948,233.73,2021-12-17 17:39:12.984375
949,234.72,2021-12-17 17:39:13.000000
950,226.62,2021-12-17 17:39:13.015625
951,208.73,2021-12-17 17:39:13.031250
952,183.65,2021-12-17 17:39:13.046875
953,156.07,2021-12-17 17:39:13.062500
954,130.75,2021-12-17 17:39:13.078125
955,111.09,2021-12-17 17:39:13.093750
956,98.44,2021-12-17 17:39:13.109375
957,92.36,2021-12-17 17:39:13.125000
958,91.51,2021-12-17 17:39:13.140625
959,94.55,2021-12-17 17:39:13.156250
960,100.43,2021-12-17 17:39:13.171875
961,108.17,2021-12-17 17:39:13.187500
962,116.43,2021-12-17 17:39:13.203125
963,123.36,2021-12-17 17:39:13.218750
964,127.16,2021-12-17 17:39:13.234375
965,126.99,2021-12-17 17:39:13.250000
966,123.56,2021-12-17 17:39:13.265625
967,119.11,2021-12-17 17:39:13.281250
968,116.43,2021-12-17 17:39:13.296875
969,117.43,2021-12-17 17:39:13.312500
970,122.15,2021-12-17 17:39:13.328125
971,128.71,2021-12-17 17:39:13.343750
972,134.11,2021-12-17 17:39:13.359375
973,135.56,2021-12-17 17:39:13.375000
974,131.73,2021-12-17 17:39:13.390625
975,123.18,2021-12-17 17:39:13.406250
976,111.97,2021-12-17 17:39:13.421875
977,100.58,2021-12-17 17:39:13.437500
978,90.58,2021-12-17 17:39:13.453125
979,82.0,2021-12-17 17:39:13.468750
980,73.47,2021-12-17 17:39:13.484375
981,63.01,2021-12-17 17:39:13.500000
982,49.12,2021-12-17 17:39:13.515625
983,31.41,2021-12-17 17:39:13.531250
984,10.79,2021-12-17 17:39:13.546875
985,-10.98,2021-12-17 17:39:13.562500
986,-31.88,2021-12-17 17:39:13.578125
987,-50.23,2021-12-17 17:39:13.593750
988,-64.95,2021-12-17 17:39:13.609375
989,-75.71,2021-12-17 17:39:13.625000
990,-83.11,2021-12-17 17:39:13.640625
991,-88.51,2021-12-17 17:39:13.656250
992,-93.87,2021-12-17 17:39:13.671875
993,-101.01,2021-12-17 17:39:13.687500
994,-110.97,2021-12-17 17:39:13.703125
995,-123.57,2021-12-17 17:39:13.718750
996,-137.55,2021-12-17 17:39:13.734375
997,-151.19,2021-12-17 17:39:13.750000
998,-163.11,2021-12-17 17:39:13.765625
999,-172.74,2021-12-17 17:39:13.781250
1000,-180.09,2021-12-17 17:39:13.796875
1001,-185.33,2021-12-17 17:39:13.812500
1002,-188.19,2021-12-17 17:39:13.828125
1003,-187.91,2021-12-17 17:39:13.843750
1004,-183.56,2021-12-17 17:39:13.859375
1005,-174.77,2021-12-17 17:39:13.875000
1006,-162.3,2021-12-17 17:39:13.890625
1007,-148.31,2021-12-17 17:39:13.906250
1008,-135.86,2021-12-17 17:39:13.921875
1009,-128.07,2021-12-17 17:39:13.937500
1010,-127.14,2021-12-17 17:39:13.953125
1011,-133.69,2021-12-17 17:39:13.968750
1012,-146.59,2021-12-17 17:39:13.984375
1013,-163.58,2021-12-17 17:39:14.000000
1014,-181.92,2021-12-17 17:39:14.015625
1015,-199.24,2021-12-17 17:39:14.031250
1016,-214.01,2021-12-17 17:39:14.046875
1017,-225.54,2021-12-17 17:39:14.062500
1018,-233.8,2021-12-17 17:39:14.078125
1019,-239.18,2021-12-17 17:39:14.093750
1020,-242.2,2021-12-17 17:39:14.109375
1021,-243.23,2021-12-17 17:39:14.125000
1022,-242.15,2021-12-17 17:39:14.140625
1023,-237.98,2021-12-17 17:39:14.156250
1024,-228.9,2021-12-17 17:39:14.171875
1025,-212.68,2021-12-17 17:39:14.187500
1026,-187.62,2021-12-17 17:39:14.203125
1027,-153.53,2021-12-17 17:39:14.218750
1028,-112.26,2021-12-17 17:39:14.234375
1029,-67.4,2021-12-17 17:39:14.250000
1030,-23.31,2021-12-17 17:39:14.265625
1031,16.19,2021-12-17 17:39:14.281250
1032,48.79,2021-12-17 17:39:14.296875
1033,73.91,2021-12-17 17:39:14.312500
1034,92.47,2021-12-17 17:39:14.328125
1035,106.15,2021-12-17 17:39:14.343750
1036,116.8,2021-12-17 17:39:14.359375
1037,126.19,2021-12-17 17:39:14.375000
1038,135.97,2021-12-17 17:39:14.390625
1039,147.81,2021-12-17 17:39:14.406250
1040,163.31,2021-12-17 17:39:14.421875
1041,183.71,2021-12-17 17:39:14.437500
1042,209.43,2021-12-17 17:39:14.453125
1043,239.81,2021-12-17 17:39:14.468750
1044,273.22,2021-12-17 17:39:14.484375
1045,307.66,2021-12-17 17:39:14.500000
1046,341.7,2021-12-17 17:39:14.515625
1047,375.08,2021-12-17 17:39:14.531250
1048,408.42,2021-12-17 17:39:14.546875
1049,442.13,2021-12-17 17:39:14.562500
1050,474.92,2021-12-17 17:39:14.578125
1051,502.97,2021-12-17 17:39:14.593750
1052,520.44,2021-12-17 17:39:14.609375
1053,521.26,2021-12-17 17:39:14.625000
1054,501.46,2021-12-17 17:39:14.640625
1055,460.81,2021-12-17 17:39:14.656250
1056,402.99,2021-12-17 17:39:14.671875
1057,334.31,2021-12-17 17:39:14.687500
1058,261.8,2021-12-17 17:39:14.703125
1059,191.61,2021-12-17 17:39:14.718750
1060,128.46,2021-12-17 17:39:14.734375
1061,75.78,2021-12-17 17:39:14.750000
1062,35.87,2021-12-17 17:39:14.765625
1063,9.73,2021-12-17 17:39:14.781250
1064,-3.6,2021-12-17 17:39:14.796875
1065,-7.51,2021-12-17 17:39:14.812500
1066,-7.31,2021-12-17 17:39:14.828125
1067,-8.87,2021-12-17 17:39:14.843750
1068,-16.77,2021-12-17 17:39:14.859375
1069,-32.99,2021-12-17 17:39:14.875000
1070,-56.7,2021-12-17 17:39:14.890625
1071,-85.17,2021-12-17 17:39:14.906250
1072,-115.3,2021-12-17 17:39:14.921875
1073,-145.15,2021-12-17 17:39:14.937500
1074,-174.65,2021-12-17 17:39:14.953125
1075,-205.23,2021-12-17 17:39:14.968750
1076,-238.52,2021-12-17 17:39:14.984375
1077,-274.54,2021-12-17 17:39:15.000000
1078,-310.43,2021-12-17 17:39:15.015625
1079,-340.59,2021-12-17 17:39:15.031250
1080,-358.42,2021-12-17 17:39:15.046875
1081,-359.01,2021-12-17 17:39:15.062500
1082,-341.53,2021-12-17 17:39:15.078125
1083,-309.81,2021-12-17 17:39:15.093750
1084,-270.7,2021-12-17 17:39:15.109375
1085,-230.87,2021-12-17 17:39:15.125000
1086,-193.91,2021-12-17 17:39:15.140625
1087,-159.37,2021-12-17 17:39:15.156250
1088,-124.14,2021-12-17 17:39:15.171875
1089,-85.41,2021-12-17 17:39:15.187500
1090,-43.25,2021-12-17 17:39:15.203125
1091,-1.02,2021-12-17 17:39:15.218750
1092,36.37,2021-12-17 17:39:15.234375
1093,65.39,2021-12-17 17:39:15.250000
1094,86.02,2021-12-17 17:39:15.265625
1095,101.87,2021-12-17 17:39:15.281250
1096,118.03,2021-12-17 17:39:15.296875
1097,137.67,2021-12-17 17:39:15.312500
1098,159.78,2021-12-17 17:39:15.328125
1099,179.17,2021-12-17 17:39:15.343750
1100,189.55,2021-12-17 17:39:15.359375
1101,187.75,2021-12-17 17:39:15.375000
1102,176.54,2021-12-17 17:39:15.390625
1103,163.99,2021-12-17 17:39:15.406250
1104,159.33,2021-12-17 17:39:15.421875
1105,167.94,2021-12-17 17:39:15.437500
1106,188.58,2021-12-17 17:39:15.453125
1107,214.6,2021-12-17 17:39:15.468750
1108,238.14,2021-12-17 17:39:15.484375
1109,254.38,2021-12-17 17:39:15.500000
1110,263.24,2021-12-17 17:39:15.515625
1111,267.24,2021-12-17 17:39:15.531250
1112,268.01,2021-12-17 17:39:15.546875
1113,263.74,2021-12-17 17:39:15.562500
1114,249.91,2021-12-17 17:39:15.578125
1115,222.53,2021-12-17 17:39:15.593750
1116,181.31,2021-12-17 17:39:15.609375
1117,130.59,2021-12-17 17:39:15.625000
1118,76.86,2021-12-17 17:39:15.640625
1119,25.34,2021-12-17 17:39:15.656250
1120,-21.95,2021-12-17 17:39:15.671875
1121,-65.15,2021-12-17 17:39:15.687500
1122,-103.58,2021-12-17 17:39:15.703125
1123,-133.0,2021-12-17 17:39:15.718750
1124,-145.19,2021-12-17 17:39:15.734375
1125,-130.96,2021-12-17 17:39:15.750000
1126,-85.01,2021-12-17 17:39:15.765625
1127,-9.94,2021-12-17 17:39:15.781250
1128,82.82,2021-12-17 17:39:15.796875
1129,175.59,2021-12-17 17:39:15.812500
1130,250.19,2021-12-17 17:39:15.828125
1131,293.61,2021-12-17 17:39:15.843750
1132,301.42,2021-12-17 17:39:15.859375
1133,277.58,2021-12-17 17:39:15.875000
1134,231.38,2021-12-17 17:39:15.890625
1135,173.67,2021-12-17 17:39:15.906250
1136,114.14,2021-12-17 17:39:15.921875
1137,60.45,2021-12-17 17:39:15.937500
1138,18.19,2021-12-17 17:39:15.953125
1139,-9.18,2021-12-17 17:39:15.968750
1140,-21.01,2021-12-17 17:39:15.984375
1141,-20.1,2021-12-17 17:39:16.000000
1142,-12.29,2021-12-17 17:39:16.015625
1143,-4.84,2021-12-17 17:39:16.031250
1144,-3.54,2021-12-17 17:39:16.046875
1145,-10.62,2021-12-17 17:39:16.062500
1146,-24.26,2021-12-17 17:39:16.078125
1147,-40.33,2021-12-17 17:39:16.093750
1148,-55.04,2021-12-17 17:39:16.109375
1149,-67.26,2021-12-17 17:39:16.125000
1150,-79.23,2021-12-17 17:39:16.140625
1151,-95.22,2021-12-17 17:39:16.156250
1152,-118.78,2021-12-17 17:39:16.171875
1153,-149.86,2021-12-17 17:39:16.187500
1154,-183.34,2021-12-17 17:39:16.203125
1155,-209.67,2021-12-17 17:39:16.218750
1156,-217.75,2021-12-17 17:39:16.234375
1157,-199.2,2021-12-17 17:39:16.250000
1158,-152.61,2021-12-17 17:39:16.265625
1159,-85.45,2021-12-17 17:39:16.281250
1160,-12.49,2021-12-17 17:39:16.296875
1161,48.75,2021-12-17 17:39:16.312500
1162,84.03,2021-12-17 17:39:16.328125
1163,86.78,2021-12-17 17:39:16.343750
1164,59.21,2021-12-17 17:39:16.359375
1165,9.84,2021-12-17 17:39:16.375000
1166,-50.77,2021-12-17 17:39:16.390625
1167,-113.92,2021-12-17 17:39:16.406250
1168,-174.67,2021-12-17 17:39:16.421875
1169,-231.16,2021-12-17 17:39:16.437500
1170,-283.26,2021-12-17 17:39:16.453125
1171,-331.31,2021-12-17 17:39:16.468750
1172,-376.23,2021-12-17 17:39:16.484375
1173,-419.78,2021-12-17 17:39:16.500000
1174,-464.21,2021-12-17 17:39:16.515625
1175,-510.78,2021-12-17 17:39:16.531250
1176,-557.63,2021-12-17 17:39:16.546875
1177,-598.88,2021-12-17 17:39:16.562500
1178,-625.82,2021-12-17 17:39:16.578125
1179,-630.36,2021-12-17 17:39:16.593750
1180,-608.65,2021-12-17 17:39:16.609375
1181,-563.08,2021-12-17 17:39:16.625000
1182,-501.42,2021-12-17 17:39:16.640625
1183,-433.54,2021-12-17 17:39:16.656250
1184,-367.65,2021-12-17 17:39:16.671875
1185,-307.82,2021-12-17 17:39:16.687500
1186,-253.98,2021-12-17 17:39:16.703125
1187,-203.68,2021-12-17 17:39:16.718750
1188,-154.48,2021-12-17 17:39:16.734375
1189,-105.28,2021-12-17 17:39:16.750000
1190,-56.33,2021-12-17 17:39:16.765625
1191,-8.42,2021-12-17 17:39:16.781250
1192,38.13,2021-12-17 17:39:16.796875
1193,83.55,2021-12-17 17:39:16.812500
1194,128.46,2021-12-17 17:39:16.828125
1195,173.13,2021-12-17 17:39:16.843750
1196,217.52,2021-12-17 17:39:16.859375
1197,261.31,2021-12-17 17:39:16.875000
1198,304.55,2021-12-17 17:39:16.890625
1199,347.46,2021-12-17 17:39:16.906250
1200,389.48,2021-12-17 17:39:16.921875
1201,428.28,2021-12-17 17:39:16.937500
1202,459.13,2021-12-17 17:39:16.953125
1203,475.84,2021-12-17 17:39:16.968750
1204,472.79,2021-12-17 17:39:16.984375
1205,447.33,2021-12-17 17:39:17.000000
1206,401.11,2021-12-17 17:39:17.015625
1207,339.77,2021-12-17 17:39:17.031250
1208,271.04,2021-12-17 17:39:17.046875
1209,202.33,2021-12-17 17:39:17.062500
1210,139.1,2021-12-17 17:39:17.078125
1211,84.39,2021-12-17 17:39:17.093750
1212,39.42,2021-12-17 17:39:17.109375
1213,4.26,2021-12-17 17:39:17.125000
1214,-21.85,2021-12-17 17:39:17.140625
1215,-40.67,2021-12-17 17:39:17.156250
1216,-55.26,2021-12-17 17:39:17.171875
1217,-69.93,2021-12-17 17:39:17.187500
1218,-89.68,2021-12-17 17:39:17.203125
1219,-118.74,2021-12-17 17:39:17.218750
1220,-158.99,2021-12-17 17:39:17.234375
1221,-208.59,2021-12-17 17:39:17.250000
1222,-261.74,2021-12-17 17:39:17.265625
1223,-310.19,2021-12-17 17:39:17.281250
1224,-346.14,2021-12-17 17:39:17.296875
1225,-365.34,2021-12-17 17:39:17.312500
1226,-368.93,2021-12-17 17:39:17.328125
1227,-362.91,2021-12-17 17:39:17.343750
1228,-355.15,2021-12-17 17:39:17.359375
1229,-351.73,2021-12-17 17:39:17.375000
1230,-354.4,2021-12-17 17:39:17.390625
1231,-360.52,2021-12-17 17:39:17.406250
1232,-365.28,2021-12-17 17:39:17.421875
1233,-364.72,2021-12-17 17:39:17.437500
1234,-357.67,2021-12-17 17:39:17.453125
1235,-345.68,2021-12-17 17:39:17.468750
1236,-331.23,2021-12-17 17:39:17.484375
1237,-315.62,2021-12-17 17:39:17.500000
1238,-297.93,2021-12-17 17:39:17.515625
1239,-275.72,2021-12-17 17:39:17.531250
1240,-246.74,2021-12-17 17:39:17.546875
1241,-210.69,2021-12-17 17:39:17.562500
1242,-169.94,2021-12-17 17:39:17.578125
1243,-129.0,2021-12-17 17:39:17.593750
1244,-92.6,2021-12-17 17:39:17.609375
1245,-63.91,2021-12-17 17:39:17.625000
1246,-43.23,2021-12-17 17:39:17.640625
1247,-28.05,2021-12-17 17:39:17.656250
1248,-14.14,2021-12-17 17:39:17.671875
1249,3.01,2021-12-17 17:39:17.687500
1250,26.93,2021-12-17 17:39:17.703125
1251,59.42,2021-12-17 17:39:17.718750
1252,100.06,2021-12-17 17:39:17.734375
1253,145.61,2021-12-17 17:39:17.750000
1254,189.93,2021-12-17 17:39:17.765625
1255,224.63,2021-12-17 17:39:17.781250
1256,241.46,2021-12-17 17:39:17.796875
1257,235.44,2021-12-17 17:39:17.812500
1258,207.61,2021-12-17 17:39:17.828125
1259,165.51,2021-12-17 17:39:17.843750
1260,120.58,2021-12-17 17:39:17.859375
1261,83.8,2021-12-17 17:39:17.875000
1262,61.48,2021-12-17 17:39:17.890625
1263,53.53,2021-12-17 17:39:17.906250
1264,54.96,2021-12-17 17:39:17.921875
1265,59.34,2021-12-17 17:39:17.937500
1266,62.27,2021-12-17 17:39:17.953125
1267,62.98,2021-12-17 17:39:17.968750
1268,63.51,2021-12-17 17:39:17.984375
1269,66.75,2021-12-17 17:39:18.000000
1270,74.7,2021-12-17 17:39:18.015625
1271,87.88,2021-12-17 17:39:18.031250
1272,105.64,2021-12-17 17:39:18.046875
1273,126.77,2021-12-17 17:39:18.062500
1274,149.66,2021-12-17 17:39:18.078125
1275,172.32,2021-12-17 17:39:18.093750
1276,192.52,2021-12-17 17:39:18.109375
1277,208.22,2021-12-17 17:39:18.125000
1278,218.43,2021-12-17 17:39:18.140625
1279,223.58,2021-12-17 17:39:18.156250
1280,225.4,2021-12-17 17:39:18.171875
1281,226.19,2021-12-17 17:39:18.187500
1282,227.79,2021-12-17 17:39:18.203125
1283,230.94,2021-12-17 17:39:18.218750
1284,235.3,2021-12-17 17:39:18.234375
1285,239.76,2021-12-17 17:39:18.250000
1286,243.18,2021-12-17 17:39:18.265625
1287,244.74,2021-12-17 17:39:18.281250
1288,244.11,2021-12-17 17:39:18.296875
1289,241.28,2021-12-17 17:39:18.312500
1290,236.28,2021-12-17 17:39:18.328125
1291,229.04,2021-12-17 17:39:18.343750
1292,219.39,2021-12-17 17:39:18.359375
1293,207.22,2021-12-17 17:39:18.375000
1294,192.58,2021-12-17 17:39:18.390625
1295,175.92,2021-12-17 17:39:18.406250
1296,157.91,2021-12-17 17:39:18.421875
1297,139.43,2021-12-17 17:39:18.437500
1298,121.21,2021-12-17 17:39:18.453125
1299,103.62,2021-12-17 17:39:18.468750
1300,86.62,2021-12-17 17:39:18.484375
1301,69.98,2021-12-17 17:39:18.500000
1302,53.61,2021-12-17 17:39:18.515625
1303,37.75,2021-12-17 17:39:18.531250
1304,23.01,2021-12-17 17:39:18.546875
1305,10.1,2021-12-17 17:39:18.562500
1306,-0.3,2021-12-17 17:39:18.578125
1307,-7.65,2021-12-17 17:39:18.593750
1308,-11.43,2021-12-17 17:39:18.609375
1309,-11.11,2021-12-17 17:39:18.625000
1310,-6.17,2021-12-17 17:39:18.640625
1311,3.68,2021-12-17 17:39:18.656250
1312,18.03,2021-12-17 17:39:18.671875
1313,35.61,2021-12-17 17:39:18.687500
1314,54.12,2021-12-17 17:39:18.703125
1315,70.72,2021-12-17 17:39:18.718750
1316,82.72,2021-12-17 17:39:18.734375
1317,88.33,2021-12-17 17:39:18.750000
1318,87.24,2021-12-17 17:39:18.765625
1319,80.59,2021-12-17 17:39:18.781250
1320,70.59,2021-12-17 17:39:18.796875
1321,59.7,2021-12-17 17:39:18.812500
1322,50.18,2021-12-17 17:39:18.828125
1323,43.54,2021-12-17 17:39:18.843750
1324,40.65,2021-12-17 17:39:18.859375
1325,41.81,2021-12-17 17:39:18.875000
1326,46.84,2021-12-17 17:39:18.890625
1327,54.96,2021-12-17 17:39:18.906250
1328,64.73,2021-12-17 17:39:18.921875
1329,74.23,2021-12-17 17:39:18.937500
1330,81.59,2021-12-17 17:39:18.953125
1331,85.95,2021-12-17 17:39:18.968750
1332,87.46,2021-12-17 17:39:18.984375
1333,87.22,2021-12-17 17:39:19.000000
1334,86.68,2021-12-17 17:39:19.015625
1335,86.86,2021-12-17 17:39:19.031250
1336,87.89,2021-12-17 17:39:19.046875
1337,89.27,2021-12-17 17:39:19.062500
1338,90.19,2021-12-17 17:39:19.078125
1339,90.1,2021-12-17 17:39:19.093750
1340,89.4,2021-12-17 17:39:19.109375
1341,88.8,2021-12-17 17:39:19.125000
1342,88.96,2021-12-17 17:39:19.140625
1343,90.21,2021-12-17 17:39:19.156250
1344,92.38,2021-12-17 17:39:19.171875
1345,94.87,2021-12-17 17:39:19.187500
1346,97.17,2021-12-17 17:39:19.203125
1347,99.07,2021-12-17 17:39:19.218750
1348,100.7,2021-12-17 17:39:19.234375
1349,103.22,2021-12-17 17:39:19.250000
1350,107.54,2021-12-17 17:39:19.265625
1351,113.93,2021-12-17 17:39:19.281250
1352,121.94,2021-12-17 17:39:19.296875
1353,130.71,2021-12-17 17:39:19.312500
1354,139.06,2021-12-17 17:39:19.328125
1355,146.36,2021-12-17 17:39:19.343750
1356,151.99,2021-12-17 17:39:19.359375
1357,154.58,2021-12-17 17:39:19.375000
1358,152.66,2021-12-17 17:39:19.390625
1359,143.46,2021-12-17 17:39:19.406250
1360,123.81,2021-12-17 17:39:19.421875
1361,91.79,2021-12-17 17:39:19.437500
1362,48.22,2021-12-17 17:39:19.453125
1363,-3.28,2021-12-17 17:39:19.468750
1364,-56.35,2021-12-17 17:39:19.484375
1365,-104.19,2021-12-17 17:39:19.500000
1366,-147.42,2021-12-17 17:39:19.515625
1367,-185.2,2021-12-17 17:39:19.531250
1368,-216.65,2021-12-17 17:39:19.546875
1369,-241.03,2021-12-17 17:39:19.562500
1370,-257.86,2021-12-17 17:39:19.578125
1371,-264.79,2021-12-17 17:39:19.593750
1372,-263.25,2021-12-17 17:39:19.609375
1373,-255.1,2021-12-17 17:39:19.625000
1374,-242.12,2021-12-17 17:39:19.640625
1375,-226.5,2021-12-17 17:39:19.656250
1376,-210.89,2021-12-17 17:39:19.671875
1377,-197.88,2021-12-17 17:39:19.687500
1378,-189.85,2021-12-17 17:39:19.703125
1379,-188.74,2021-12-17 17:39:19.718750
1380,-196.08,2021-12-17 17:39:19.734375
1381,-213.32,2021-12-17 17:39:19.750000
1382,-240.57,2021-12-17 17:39:19.765625
1383,-275.91,2021-12-17 17:39:19.781250
1384,-314.89,2021-12-17 17:39:19.796875
1385,-349.81,2021-12-17 17:39:19.812500
1386,-372.33,2021-12-17 17:39:19.828125
1387,-376.25,2021-12-17 17:39:19.843750
1388,-359.72,2021-12-17 17:39:19.859375
1389,-325.86,2021-12-17 17:39:19.875000
1390,-281.7,2021-12-17 17:39:19.890625
1391,-234.85,2021-12-17 17:39:19.906250
1392,-191.23,2021-12-17 17:39:19.921875
1393,-153.93,2021-12-17 17:39:19.937500
1394,-122.91,2021-12-17 17:39:19.953125
1395,-96.68,2021-12-17 17:39:19.968750
1396,-73.64,2021-12-17 17:39:19.984375
1397,-52.35,2021-12-17 17:39:20.000000
1398,-31.26,2021-12-17 17:39:20.015625
1399,-8.41,2021-12-17 17:39:20.031250
1400,18.82,2021-12-17 17:39:20.046875
1401,52.57,2021-12-17 17:39:20.062500
1402,92.96,2021-12-17 17:39:20.078125
1403,137.25,2021-12-17 17:39:20.093750
1404,179.58,2021-12-17 17:39:20.109375
1405,211.82,2021-12-17 17:39:20.125000
1406,226.27,2021-12-17 17:39:20.140625
1407,218.19,2021-12-17 17:39:20.156250
1408,187.55,2021-12-17 17:39:20.171875
1409,139.17,2021-12-17 17:39:20.187500
1410,80.71,2021-12-17 17:39:20.203125
1411,19.79,2021-12-17 17:39:20.218750
1412,-38.15,2021-12-17 17:39:20.234375
1413,-90.56,2021-12-17 17:39:20.250000
1414,-136.58,2021-12-17 17:39:20.265625
1415,-174.73,2021-12-17 17:39:20.281250
1416,-201.62,2021-12-17 17:39:20.296875
1417,-212.22,2021-12-17 17:39:20.312500
1418,-201.81,2021-12-17 17:39:20.328125
1419,-168.5,2021-12-17 17:39:20.343750
1420,-114.97,2021-12-17 17:39:20.359375
1421,-48.32,2021-12-17 17:39:20.375000
1422,21.71,2021-12-17 17:39:20.390625
1423,85.41,2021-12-17 17:39:20.406250
1424,135.68,2021-12-17 17:39:20.421875
1425,169.44,2021-12-17 17:39:20.437500
1426,187.57,2021-12-17 17:39:20.453125
1427,193.56,2021-12-17 17:39:20.468750
1428,191.85,2021-12-17 17:39:20.484375
1429,186.12,2021-12-17 17:39:20.500000
1430,178.43,2021-12-17 17:39:20.515625
1431,169.21,2021-12-17 17:39:20.531250
1432,157.85,2021-12-17 17:39:20.546875
1433,143.75,2021-12-17 17:39:20.562500
1434,127.1,2021-12-17 17:39:20.578125
1435,109.24,2021-12-17 17:39:20.593750
1436,92.35,2021-12-17 17:39:20.609375
1437,78.65,2021-12-17 17:39:20.625000
1438,69.55,2021-12-17 17:39:20.640625
1439,65.05,2021-12-17 17:39:20.656250
1440,63.81,2021-12-17 17:39:20.671875
1441,63.73,2021-12-17 17:39:20.687500
1442,62.82,2021-12-17 17:39:20.703125
1443,59.97,2021-12-17 17:39:20.718750
1444,55.2,2021-12-17 17:39:20.734375
1445,49.42,2021-12-17 17:39:20.750000
1446,43.62,2021-12-17 17:39:20.765625
1447,38.33,2021-12-17 17:39:20.781250
1448,33.44,2021-12-17 17:39:20.796875
1449,28.56,2021-12-17 17:39:20.812500
1450,23.67,2021-12-17 17:39:20.828125
1451,19.44,2021-12-17 17:39:20.843750
1452,17.12,2021-12-17 17:39:20.859375
1453,17.85,2021-12-17 17:39:20.875000
1454,21.96,2021-12-17 17:39:20.890625
1455,28.56,2021-12-17 17:39:20.906250
1456,35.85,2021-12-17 17:39:20.921875
1457,41.92,2021-12-17 17:39:20.937500
1458,45.58,2021-12-17 17:39:20.953125
1459,46.74,2021-12-17 17:39:20.968750
1460,46.12,2021-12-17 17:39:20.984375
1461,44.41,2021-12-17 17:39:21.000000
1462,41.46,2021-12-17 17:39:21.015625
1463,36.06,2021-12-17 17:39:21.031250
1464,26.37,2021-12-17 17:39:21.046875
1465,11.01,2021-12-17 17:39:21.062500
1466,-9.92,2021-12-17 17:39:21.078125
1467,-34.44,2021-12-17 17:39:21.093750
1468,-59.05,2021-12-17 17:39:21.109375
1469,-79.95,2021-12-17 17:39:21.125000
1470,-94.3,2021-12-17 17:39:21.140625
1471,-101.0,2021-12-17 17:39:21.156250
1472,-100.76,2021-12-17 17:39:21.171875
1473,-95.44,2021-12-17 17:39:21.187500
1474,-87.15,2021-12-17 17:39:21.203125
1475,-77.62,2021-12-17 17:39:21.218750
1476,-67.98,2021-12-17 17:39:21.234375
1477,-58.95,2021-12-17 17:39:21.250000
1478,-51.04,2021-12-17 17:39:21.265625
1479,-44.71,2021-12-17 17:39:21.281250
1480,-40.17,2021-12-17 17:39:21.296875
1481,-37.3,2021-12-17 17:39:21.312500
1482,-35.56,2021-12-17 17:39:21.328125
1483,-34.08,2021-12-17 17:39:21.343750
1484,-31.95,2021-12-17 17:39:21.359375
1485,-28.59,2021-12-17 17:39:21.375000
1486,-23.94,2021-12-17 17:39:21.390625
1487,-18.45,2021-12-17 17:39:21.406250
1488,-12.86,2021-12-17 17:39:21.421875
1489,-7.94,2021-12-17 17:39:21.437500
1490,-4.26,2021-12-17 17:39:21.453125
1491,-1.95,2021-12-17 17:39:21.468750
1492,-0.81,2021-12-17 17:39:21.484375
1493,-0.33,2021-12-17 17:39:21.500000
1494,0.01,2021-12-17 17:39:21.515625
1495,0.61,2021-12-17 17:39:21.531250
1496,1.55,2021-12-17 17:39:21.546875
1497,2.68,2021-12-17 17:39:21.562500
1498,3.82,2021-12-17 17:39:21.578125
1499,4.81,2021-12-17 17:39:21.593750
1500,5.67,2021-12-17 17:39:21.609375
1501,6.56,2021-12-17 17:39:21.625000
1502,7.65,2021-12-17 17:39:21.640625
1503,8.97,2021-12-17 17:39:21.656250
1504,10.4,2021-12-17 17:39:21.671875
1505,11.7,2021-12-17 17:39:21.687500
1506,12.61,2021-12-17 17:39:21.703125
1507,13.0,2021-12-17 17:39:21.718750
1508,12.82,2021-12-17 17:39:21.734375
1509,12.1,2021-12-17 17:39:21.750000
1510,10.77,2021-12-17 17:39:21.765625
1511,8.79,2021-12-17 17:39:21.781250
1512,6.2,2021-12-17 17:39:21.796875
1513,3.26,2021-12-17 17:39:21.812500
1514,0.4,2021-12-17 17:39:21.828125
1515,-1.87,2021-12-17 17:39:21.843750
1516,-3.19,2021-12-17 17:39:21.859375
1517,-3.48,2021-12-17 17:39:21.875000
1518,-2.89,2021-12-17 17:39:21.890625
1519,-1.71,2021-12-17 17:39:21.906250
1520,-0.2,2021-12-17 17:39:21.921875
1521,1.55,2021-12-17 17:39:21.937500
1522,3.38,2021-12-17 17:39:21.953125
1523,5.13,2021-12-17 17:39:21.968750
1524,6.44,2021-12-17 17:39:21.984375
1525,6.92,2021-12-17 17:39:22.000000
1526,6.24,2021-12-17 17:39:22.015625
1527,4.26,2021-12-17 17:39:22.031250
1528,1.05,2021-12-17 17:39:22.046875
1529,-3.19,2021-12-17 17:39:22.062500
1530,-8.19,2021-12-17 17:39:22.078125
1531,-13.62,2021-12-17 17:39:22.093750
1532,-18.92,2021-12-17 17:39:22.109375
1533,-23.3,2021-12-17 17:39:22.125000
1534,-25.87,2021-12-17 17:39:22.140625
1535,-25.9,2021-12-17 17:39:22.156250
1536,-23.29,2021-12-17 17:39:22.171875
1537,-18.77,2021-12-17 17:39:22.187500
1538,-13.64,2021-12-17 17:39:22.203125
1539,-9.35,2021-12-17 17:39:22.218750
1540,-6.86,2021-12-17 17:39:22.234375
1541,-6.24,2021-12-17 17:39:22.250000
1542,-6.86,2021-12-17 17:39:22.265625
1543,-7.78,2021-12-17 17:39:22.281250
1544,-8.45,2021-12-17 17:39:22.296875
1545,-9.07,2021-12-17 17:39:22.312500
1546,-10.51,2021-12-17 17:39:22.328125
1547,-13.82,2021-12-17 17:39:22.343750
1548,-19.54,2021-12-17 17:39:22.359375
1549,-27.39,2021-12-17 17:39:22.375000
1550,-36.3,2021-12-17 17:39:22.390625
1551,-44.96,2021-12-17 17:39:22.406250
1552,-52.25,2021-12-17 17:39:22.421875
1553,-57.5,2021-12-17 17:39:22.437500
1554,-60.49,2021-12-17 17:39:22.453125
1555,-61.23,2021-12-17 17:39:22.468750
1556,-59.83,2021-12-17 17:39:22.484375
1557,-56.51,2021-12-17 17:39:22.500000
1558,-51.71,2021-12-17 17:39:22.515625
1559,-46.2,2021-12-17 17:39:22.531250
1560,-40.97,2021-12-17 17:39:22.546875
1561,-36.87,2021-12-17 17:39:22.562500
1562,-34.3,2021-12-17 17:39:22.578125
1563,-33.1,2021-12-17 17:39:22.593750
1564,-32.8,2021-12-17 17:39:22.609375
1565,-32.95,2021-12-17 17:39:22.625000
1566,-33.37,2021-12-17 17:39:22.640625
1567,-34.21,2021-12-17 17:39:22.656250
1568,-35.65,2021-12-17 17:39:22.671875
1569,-37.69,2021-12-17 17:39:22.687500
1570,-40.07,2021-12-17 17:39:22.703125
1571,-42.33,2021-12-17 17:39:22.718750
1572,-44.03,2021-12-17 17:39:22.734375
1573,-44.89,2021-12-17 17:39:22.750000
1574,-44.79,2021-12-17 17:39:22.765625
1575,-43.68,2021-12-17 17:39:22.781250
1576,-41.59,2021-12-17 17:39:22.796875
1577,-38.62,2021-12-17 17:39:22.812500
1578,-34.98,2021-12-17 17:39:22.828125
1579,-30.97,2021-12-17 17:39:22.843750
1580,-26.76,2021-12-17 17:39:22.859375
1581,-22.32,2021-12-17 17:39:22.875000
1582,-17.39,2021-12-17 17:39:22.890625
1583,-11.66,2021-12-17 17:39:22.906250
1584,-5.04,2021-12-17 17:39:22.921875
1585,2.23,2021-12-17 17:39:22.937500
1586,9.62,2021-12-17 17:39:22.953125
1587,16.7,2021-12-17 17:39:22.968750
1588,23.36,2021-12-17 17:39:22.984375
1589,30.0,2021-12-17 17:39:23.000000
1590,37.26,2021-12-17 17:39:23.015625
1591,45.54,2021-12-17 17:39:23.031250
1592,54.62,2021-12-17 17:39:23.046875
1593,63.46,2021-12-17 17:39:23.062500
1594,70.52,2021-12-17 17:39:23.078125
1595,74.28,2021-12-17 17:39:23.093750
1596,73.89,2021-12-17 17:39:23.109375
1597,69.37,2021-12-17 17:39:23.125000
1598,61.68,2021-12-17 17:39:23.140625
1599,52.3,2021-12-17 17:39:23.156250
1600,42.73,2021-12-17 17:39:23.171875
1601,34.17,2021-12-17 17:39:23.187500
1602,27.26,2021-12-17 17:39:23.203125
1603,22.17,2021-12-17 17:39:23.218750
1604,18.79,2021-12-17 17:39:23.234375
1605,16.95,2021-12-17 17:39:23.250000
1606,16.32,2021-12-17 17:39:23.265625
1607,16.59,2021-12-17 17:39:23.281250
1608,17.32,2021-12-17 17:39:23.296875
1609,17.99,2021-12-17 17:39:23.312500
1610,18.1,2021-12-17 17:39:23.328125
1611,17.25,2021-12-17 17:39:23.343750
1612,15.29,2021-12-17 17:39:23.359375
1613,12.42,2021-12-17 17:39:23.375000
1614,9.13,2021-12-17 17:39:23.390625
1615,6.07,2021-12-17 17:39:23.406250
1616,3.77,2021-12-17 17:39:23.421875
1617,2.53,2021-12-17 17:39:23.437500
1618,2.32,2021-12-17 17:39:23.453125
1619,2.86,2021-12-17 17:39:23.468750
1620,3.87,2021-12-17 17:39:23.484375
1621,5.13,2021-12-17 17:39:23.500000
1622,6.61,2021-12-17 17:39:23.515625
1623,8.28,2021-12-17 17:39:23.531250
1624,10.1,2021-12-17 17:39:23.546875
1625,11.92,2021-12-17 17:39:23.562500
1626,13.57,2021-12-17 17:39:23.578125
1627,14.93,2021-12-17 17:39:23.593750
1628,16.02,2021-12-17 17:39:23.609375
1629,16.97,2021-12-17 17:39:23.625000
1630,17.94,2021-12-17 17:39:23.640625
1631,19.0,2021-12-17 17:39:23.656250
1632,20.05,2021-12-17 17:39:23.671875
1633,20.91,2021-12-17 17:39:23.687500
1634,21.31,2021-12-17 17:39:23.703125
1635,21.06,2021-12-17 17:39:23.718750
1636,20.07,2021-12-17 17:39:23.734375
1637,18.41,2021-12-17 17:39:23.750000
1638,16.26,2021-12-17 17:39:23.765625
1639,13.88,2021-12-17 17:39:23.781250
1640,11.53,2021-12-17 17:39:23.796875
1641,9.36,2021-12-17 17:39:23.812500
1642,7.46,2021-12-17 17:39:23.828125
1643,5.8,2021-12-17 17:39:23.843750
1644,4.3,2021-12-17 17:39:23.859375
1645,2.86,2021-12-17 17:39:23.875000
1646,1.41,2021-12-17 17:39:23.890625
1647,-0.07,2021-12-17 17:39:23.906250
1648,-1.57,2021-12-17 17:39:23.921875
1649,-3.05,2021-12-17 17:39:23.937500
1650,-4.42,2021-12-17 17:39:23.953125
1651,-5.55,2021-12-17 17:39:23.968750
1652,-6.24,2021-12-17 17:39:23.984375
1653,-6.34,2021-12-17 17:39:24.000000
1654,-5.84,2021-12-17 17:39:24.015625
1655,-4.9,2021-12-17 17:39:24.031250
1656,-3.81,2021-12-17 17:39:24.046875
1657,-2.93,2021-12-17 17:39:24.062500
1658,-2.42,2021-12-17 17:39:24.078125
1659,-2.15,2021-12-17 17:39:24.093750
1660,-1.77,2021-12-17 17:39:24.109375
1661,-0.84,2021-12-17 17:39:24.125000
1662,0.8,2021-12-17 17:39:24.140625
1663,2.96,2021-12-17 17:39:24.156250
1664,5.16,2021-12-17 17:39:24.171875
1665,6.85,2021-12-17 17:39:24.187500
1666,7.69,2021-12-17 17:39:24.203125
1667,7.65,2021-12-17 17:39:24.218750
1668,6.96,2021-12-17 17:39:24.234375
1669,5.9,2021-12-17 17:39:24.250000
1670,4.62,2021-12-17 17:39:24.265625
1671,3.11,2021-12-17 17:39:24.281250
1672,1.35,2021-12-17 17:39:24.296875
1673,-0.61,2021-12-17 17:39:24.312500
1674,-2.52,2021-12-17 17:39:24.328125
1675,-4.05,2021-12-17 17:39:24.343750
1676,-4.91,2021-12-17 17:39:24.359375
1677,-5.0,2021-12-17 17:39:24.375000
1678,-4.45,2021-12-17 17:39:24.390625
1679,-3.49,2021-12-17 17:39:24.406250
1680,-2.4,2021-12-17 17:39:24.421875
1681,-1.3,2021-12-17 17:39:24.437500
1682,-0.2,2021-12-17 17:39:24.453125
1683,0.96,2021-12-17 17:39:24.468750
1684,2.18,2021-12-17 17:39:24.484375
1685,3.41,2021-12-17 17:39:24.500000
1686,4.44,2021-12-17 17:39:24.515625
1687,5.01,2021-12-17 17:39:24.531250
1688,4.89,2021-12-17 17:39:24.546875
1689,3.98,2021-12-17 17:39:24.562500
1690,2.39,2021-12-17 17:39:24.578125
1691,0.43,2021-12-17 17:39:24.593750
1692,-1.45,2021-12-17 17:39:24.609375
1693,-2.8,2021-12-17 17:39:24.625000
1694,-3.24,2021-12-17 17:39:24.640625
1695,-2.67,2021-12-17 17:39:24.656250
1696,-1.25,2021-12-17 17:39:24.671875
1697,0.6,2021-12-17 17:39:24.687500
1698,2.32,2021-12-17 17:39:24.703125
1699,3.45,2021-12-17 17:39:24.718750
1700,3.71,2021-12-17 17:39:24.734375
1701,3.12,2021-12-17 17:39:24.750000
1702,1.94,2021-12-17 17:39:24.765625
1703,0.5,2021-12-17 17:39:24.781250
1704,-0.9,2021-12-17 17:39:24.796875
1705,-2.15,2021-12-17 17:39:24.812500
1706,-3.28,2021-12-17 17:39:24.828125
1707,-4.4,2021-12-17 17:39:24.843750
1708,-5.57,2021-12-17 17:39:24.859375
1709,-6.74,2021-12-17 17:39:24.875000
1710,-7.85,2021-12-17 17:39:24.890625
1711,-8.83,2021-12-17 17:39:24.906250
1712,-9.72,2021-12-17 17:39:24.921875
1713,-10.64,2021-12-17 17:39:24.937500
1714,-11.73,2021-12-17 17:39:24.953125
1715,-13.01,2021-12-17 17:39:24.968750
1716,-14.34,2021-12-17 17:39:24.984375
1717,-15.42,2021-12-17 17:39:25.000000
1718,-15.89,2021-12-17 17:39:25.015625
1719,-15.52,2021-12-17 17:39:25.031250
1720,-14.34,2021-12-17 17:39:25.046875
1721,-12.66,2021-12-17 17:39:25.062500
1722,-10.96,2021-12-17 17:39:25.078125
1723,-9.71,2021-12-17 17:39:25.093750
1724,-9.18,2021-12-17 17:39:25.109375
1725,-9.35,2021-12-17 17:39:25.125000
1726,-9.99,2021-12-17 17:39:25.140625
1727,-10.74,2021-12-17 17:39:25.156250
1728,-11.32,2021-12-17 17:39:25.171875
1729,-11.58,2021-12-17 17:39:25.187500
1730,-11.56,2021-12-17 17:39:25.203125
1731,-11.44,2021-12-17 17:39:25.218750
1732,-11.39,2021-12-17 17:39:25.234375
1733,-11.49,2021-12-17 17:39:25.250000
1734,-11.76,2021-12-17 17:39:25.265625
1735,-12.11,2021-12-17 17:39:25.281250
1736,-12.46,2021-12-17 17:39:25.296875
1737,-12.83,2021-12-17 17:39:25.312500
1738,-13.27,2021-12-17 17:39:25.328125
1739,-13.9,2021-12-17 17:39:25.343750
1740,-14.82,2021-12-17 17:39:25.359375
1741,-16.04,2021-12-17 17:39:25.375000
1742,-17.53,2021-12-17 17:39:25.390625
1743,-19.22,2021-12-17 17:39:25.406250
1744,-21.06,2021-12-17 17:39:25.421875
1745,-23.03,2021-12-17 17:39:25.437500
1746,-25.15,2021-12-17 17:39:25.453125
1747,-27.36,2021-12-17 17:39:25.468750
1748,-29.54,2021-12-17 17:39:25.484375
1749,-31.58,2021-12-17 17:39:25.500000
1750,-33.29,2021-12-17 17:39:25.515625
1751,-34.61,2021-12-17 17:39:25.531250
1752,-35.46,2021-12-17 17:39:25.546875
1753,-35.78,2021-12-17 17:39:25.562500
1754,-35.48,2021-12-17 17:39:25.578125
1755,-34.5,2021-12-17 17:39:25.593750
1756,-32.81,2021-12-17 17:39:25.609375
1757,-30.46,2021-12-17 17:39:25.625000
1758,-27.52,2021-12-17 17:39:25.640625
1759,-24.02,2021-12-17 17:39:25.656250
1760,-20.0,2021-12-17 17:39:25.671875
1761,-15.53,2021-12-17 17:39:25.687500
1762,-10.77,2021-12-17 17:39:25.703125
1763,-6.11,2021-12-17 17:39:25.718750
1764,-2.08,2021-12-17 17:39:25.734375
1765,0.91,2021-12-17 17:39:25.750000
1766,2.71,2021-12-17 17:39:25.765625
1767,3.57,2021-12-17 17:39:25.781250
1768,3.96,2021-12-17 17:39:25.796875
1769,4.38,2021-12-17 17:39:25.812500
1770,5.09,2021-12-17 17:39:25.828125
1771,6.12,2021-12-17 17:39:25.843750
1772,7.39,2021-12-17 17:39:25.859375
1773,8.88,2021-12-17 17:39:25.875000
1774,10.86,2021-12-17 17:39:25.890625
1775,13.62,2021-12-17 17:39:25.906250
1776,17.36,2021-12-17 17:39:25.921875
1777,21.97,2021-12-17 17:39:25.937500
1778,26.99,2021-12-17 17:39:25.953125
1779,31.83,2021-12-17 17:39:25.968750
1780,35.95,2021-12-17 17:39:25.984375
1781,39.1,2021-12-17 17:39:26.000000
1782,41.34,2021-12-17 17:39:26.015625
1783,42.99,2021-12-17 17:39:26.031250
1784,44.33,2021-12-17 17:39:26.046875
1785,45.55,2021-12-17 17:39:26.062500
1786,46.65,2021-12-17 17:39:26.078125
1787,47.44,2021-12-17 17:39:26.093750
1788,47.73,2021-12-17 17:39:26.109375
1789,47.4,2021-12-17 17:39:26.125000
1790,46.47,2021-12-17 17:39:26.140625
1791,45.12,2021-12-17 17:39:26.156250
1792,43.58,2021-12-17 17:39:26.171875
1793,42.06,2021-12-17 17:39:26.187500
1794,40.68,2021-12-17 17:39:26.203125
1795,39.48,2021-12-17 17:39:26.218750
1796,38.34,2021-12-17 17:39:26.234375
1797,37.07,2021-12-17 17:39:26.250000
1798,35.44,2021-12-17 17:39:26.265625
1799,33.34,2021-12-17 17:39:26.281250
1800,30.83,2021-12-17 17:39:26.296875
1801,28.36,2021-12-17 17:39:26.312500
1802,26.47,2021-12-17 17:39:26.328125
1803,25.7,2021-12-17 17:39:26.343750
1804,26.18,2021-12-17 17:39:26.359375
1805,27.48,2021-12-17 17:39:26.375000
1806,28.75,2021-12-17 17:39:26.390625
1807,29.02,2021-12-17 17:39:26.406250
1808,27.71,2021-12-17 17:39:26.421875
1809,24.85,2021-12-17 17:39:26.437500
1810,21.07,2021-12-17 17:39:26.453125
1811,17.23,2021-12-17 17:39:26.468750
1812,13.97,2021-12-17 17:39:26.484375
1813,11.46,2021-12-17 17:39:26.500000
1814,9.42,2021-12-17 17:39:26.515625
1815,7.32,2021-12-17 17:39:26.531250
1816,4.68,2021-12-17 17:39:26.546875
1817,1.29,2021-12-17 17:39:26.562500
1818,-2.76,2021-12-17 17:39:26.578125
1819,-7.17,2021-12-17 17:39:26.593750
1820,-11.58,2021-12-17 17:39:26.609375
1821,-15.69,2021-12-17 17:39:26.625000
1822,-19.23,2021-12-17 17:39:26.640625
1823,-21.98,2021-12-17 17:39:26.656250
1824,-23.73,2021-12-17 17:39:26.671875
1825,-24.38,2021-12-17 17:39:26.687500
1826,-23.99,2021-12-17 17:39:26.703125
1827,-22.76,2021-12-17 17:39:26.718750
1828,-20.98,2021-12-17 17:39:26.734375
1829,-18.82,2021-12-17 17:39:26.750000
1830,-16.2,2021-12-17 17:39:26.765625
1831,-12.69,2021-12-17 17:39:26.781250
1832,-7.81,2021-12-17 17:39:26.796875
1833,-1.3,2021-12-17 17:39:26.812500
1834,6.53,2021-12-17 17:39:26.828125
1835,14.75,2021-12-17 17:39:26.843750
1836,21.99,2021-12-17 17:39:26.859375
1837,26.97,2021-12-17 17:39:26.875000
1838,28.99,2021-12-17 17:39:26.890625
1839,28.18,2021-12-17 17:39:26.906250
1840,25.36,2021-12-17 17:39:26.921875
1841,21.62,2021-12-17 17:39:26.937500
1842,17.81,2021-12-17 17:39:26.953125
1843,14.21,2021-12-17 17:39:26.968750
1844,10.57,2021-12-17 17:39:26.984375
1845,6.28,2021-12-17 17:39:27.000000
1846,0.84,2021-12-17 17:39:27.015625
1847,-5.96,2021-12-17 17:39:27.031250
1848,-13.86,2021-12-17 17:39:27.046875
1849,-22.11,2021-12-17 17:39:27.062500
1850,-29.62,2021-12-17 17:39:27.078125
1851,-35.03,2021-12-17 17:39:27.093750
1852,-36.98,2021-12-17 17:39:27.109375
1853,-34.54,2021-12-17 17:39:27.125000
1854,-27.62,2021-12-17 17:39:27.140625
1855,-17.15,2021-12-17 17:39:27.156250
1856,-4.94,2021-12-17 17:39:27.171875
1857,6.79,2021-12-17 17:39:27.187500
1858,16.2,2021-12-17 17:39:27.203125
1859,22.3,2021-12-17 17:39:27.218750
1860,25.05,2021-12-17 17:39:27.234375
1861,25.12,2021-12-17 17:39:27.250000
1862,23.35,2021-12-17 17:39:27.265625
1863,20.35,2021-12-17 17:39:27.281250
1864,16.41,2021-12-17 17:39:27.296875
1865,11.7,2021-12-17 17:39:27.312500
1866,6.48,2021-12-17 17:39:27.328125
1867,1.29,2021-12-17 17:39:27.343750
1868,-3.15,2021-12-17 17:39:27.359375
1869,-6.28,2021-12-17 17:39:27.375000
1870,-7.86,2021-12-17 17:39:27.390625
1871,-8.15,2021-12-17 17:39:27.406250
1872,-7.64,2021-12-17 17:39:27.421875
1873,-6.91,2021-12-17 17:39:27.437500
1874,-6.29,2021-12-17 17:39:27.453125
1875,-5.79,2021-12-17 17:39:27.468750
1876,-5.23,2021-12-17 17:39:27.484375
1877,-4.39,2021-12-17 17:39:27.500000
1878,-3.15,2021-12-17 17:39:27.515625
1879,-1.7,2021-12-17 17:39:27.531250
1880,-0.4,2021-12-17 17:39:27.546875
1881,0.35,2021-12-17 17:39:27.562500
1882,0.3,2021-12-17 17:39:27.578125
1883,-0.53,2021-12-17 17:39:27.593750
1884,-1.84,2021-12-17 17:39:27.609375
1885,-3.17,2021-12-17 17:39:27.625000
1886,-4.03,2021-12-17 17:39:27.640625
1887,-4.01,2021-12-17 17:39:27.656250
1888,-2.85,2021-12-17 17:39:27.671875
1889,-0.54,2021-12-17 17:39:27.687500
1890,2.65,2021-12-17 17:39:27.703125
1891,6.26,2021-12-17 17:39:27.718750
1892,9.73,2021-12-17 17:39:27.734375
1893,12.72,2021-12-17 17:39:27.750000
1894,15.25,2021-12-17 17:39:27.765625
1895,17.77,2021-12-17 17:39:27.781250
1896,20.98,2021-12-17 17:39:27.796875
1897,25.46,2021-12-17 17:39:27.812500
1898,31.33,2021-12-17 17:39:27.828125
1899,38.05,2021-12-17 17:39:27.843750
1900,44.65,2021-12-17 17:39:27.859375
1901,50.07,2021-12-17 17:39:27.875000
1902,53.64,2021-12-17 17:39:27.890625
1903,55.25,2021-12-17 17:39:27.906250
1904,55.31,2021-12-17 17:39:27.921875
1905,54.38,2021-12-17 17:39:27.937500
1906,53.03,2021-12-17 17:39:27.953125
1907,51.75,2021-12-17 17:39:27.968750
1908,51.08,2021-12-17 17:39:27.984375
1909,51.71,2021-12-17 17:39:28.000000
1910,54.47,2021-12-17 17:39:28.015625
1911,60.0,2021-12-17 17:39:28.031250
1912,68.55,2021-12-17 17:39:28.046875
1913,79.66,2021-12-17 17:39:28.062500
1914,92.37,2021-12-17 17:39:28.078125
1915,105.38,2021-12-17 17:39:28.093750
1916,117.63,2021-12-17 17:39:28.109375
1917,128.57,2021-12-17 17:39:28.125000
1918,138.21,2021-12-17 17:39:28.140625
1919,147.04,2021-12-17 17:39:28.156250
1920,155.61,2021-12-17 17:39:28.171875
1921,164.25,2021-12-17 17:39:28.187500
1922,172.76,2021-12-17 17:39:28.203125
1923,180.44,2021-12-17 17:39:28.218750
1924,186.23,2021-12-17 17:39:28.234375
1925,189.13,2021-12-17 17:39:28.250000
1926,188.71,2021-12-17 17:39:28.265625
1927,185.44,2021-12-17 17:39:28.281250
1928,180.79,2021-12-17 17:39:28.296875
1929,176.72,2021-12-17 17:39:28.312500
1930,174.87,2021-12-17 17:39:28.328125
1931,175.51,2021-12-17 17:39:28.343750
1932,177.19,2021-12-17 17:39:28.359375
1933,176.96,2021-12-17 17:39:28.375000
1934,171.44,2021-12-17 17:39:28.390625
1935,158.22,2021-12-17 17:39:28.406250
1936,136.74,2021-12-17 17:39:28.421875
1937,108.32,2021-12-17 17:39:28.437500
1938,75.29,2021-12-17 17:39:28.453125
1939,39.75,2021-12-17 17:39:28.468750
1940,2.58,2021-12-17 17:39:28.484375
1941,-36.5,2021-12-17 17:39:28.500000
1942,-78.25,2021-12-17 17:39:28.515625
1943,-122.79,2021-12-17 17:39:28.531250
1944,-168.93,2021-12-17 17:39:28.546875
1945,-214.42,2021-12-17 17:39:28.562500
1946,-256.7,2021-12-17 17:39:28.578125
1947,-293.99,2021-12-17 17:39:28.593750
1948,-325.89,2021-12-17 17:39:28.609375
1949,-353.35,2021-12-17 17:39:28.625000
1950,-378.08,2021-12-17 17:39:28.640625
1951,-402.14,2021-12-17 17:39:28.656250
1952,-427.62,2021-12-17 17:39:28.671875
1953,-456.48,2021-12-17 17:39:28.687500
1954,-489.9,2021-12-17 17:39:28.703125
1955,-527.2,2021-12-17 17:39:28.718750
1956,-564.93,2021-12-17 17:39:28.734375
1957,-596.93,2021-12-17 17:39:28.750000
1958,-615.88,2021-12-17 17:39:28.765625
1959,-615.9,2021-12-17 17:39:28.781250
1960,-595.04,2021-12-17 17:39:28.796875
1961,-556.33,2021-12-17 17:39:28.812500
1962,-506.6,2021-12-17 17:39:28.828125
1963,-453.82,2021-12-17 17:39:28.843750
1964,-404.28,2021-12-17 17:39:28.859375
1965,-361.01,2021-12-17 17:39:28.875000
1966,-323.86,2021-12-17 17:39:28.890625
1967,-291.04,2021-12-17 17:39:28.906250
1968,-260.51,2021-12-17 17:39:28.921875
1969,-230.78,2021-12-17 17:39:28.937500
1970,-200.92,2021-12-17 17:39:28.953125
1971,-170.06,2021-12-17 17:39:28.968750
1972,-137.29,2021-12-17 17:39:28.984375
1973,-101.79,2021-12-17 17:39:29.000000
1974,-63.48,2021-12-17 17:39:29.015625
1975,-23.14,2021-12-17 17:39:29.031250
1976,17.78,2021-12-17 17:39:29.046875
1977,57.64,2021-12-17 17:39:29.062500
1978,95.42,2021-12-17 17:39:29.078125
1979,131.22,2021-12-17 17:39:29.093750
1980,166.43,2021-12-17 17:39:29.109375
1981,203.18,2021-12-17 17:39:29.125000
1982,243.14,2021-12-17 17:39:29.140625
1983,286.07,2021-12-17 17:39:29.156250
1984,328.91,2021-12-17 17:39:29.171875
1985,365.98,2021-12-17 17:39:29.187500
1986,390.87,2021-12-17 17:39:29.203125
1987,398.85,2021-12-17 17:39:29.218750
1988,388.96,2021-12-17 17:39:29.234375
1989,364.62,2021-12-17 17:39:29.250000
1990,332.3,2021-12-17 17:39:29.265625
1991,298.97,2021-12-17 17:39:29.281250
1992,269.6,2021-12-17 17:39:29.296875
1993,245.97,2021-12-17 17:39:29.312500
1994,227.03,2021-12-17 17:39:29.328125
1995,210.5,2021-12-17 17:39:29.343750
1996,194.49,2021-12-17 17:39:29.359375
1997,178.29,2021-12-17 17:39:29.375000
1998,162.2,2021-12-17 17:39:29.390625
1999,146.86,2021-12-17 17:39:29.406250
2000,132.53,2021-12-17 17:39:29.421875
2001,119.14,2021-12-17 17:39:29.437500
2002,106.49,2021-12-17 17:39:29.453125
2003,94.64,2021-12-17 17:39:29.468750
2004,84.03,2021-12-17 17:39:29.484375
2005,75.39,2021-12-17 17:39:29.500000
2006,69.17,2021-12-17 17:39:29.515625
2007,65.29,2021-12-17 17:39:29.531250
2008,62.97,2021-12-17 17:39:29.546875
2009,60.98,2021-12-17 17:39:29.562500
2010,58.13,2021-12-17 17:39:29.578125
2011,53.73,2021-12-17 17:39:29.593750
2012,47.77,2021-12-17 17:39:29.609375
2013,40.91,2021-12-17 17:39:29.625000
2014,34.05,2021-12-17 17:39:29.640625
2015,27.87,2021-12-17 17:39:29.656250
2016,22.56,2021-12-17 17:39:29.671875
2017,17.79,2021-12-17 17:39:29.687500
2018,12.93,2021-12-17 17:39:29.703125
2019,7.48,2021-12-17 17:39:29.718750
2020,1.35,2021-12-17 17:39:29.734375
2021,-5.16,2021-12-17 17:39:29.750000
2022,-11.42,2021-12-17 17:39:29.765625
2023,-16.8,2021-12-17 17:39:29.781250
2024,-20.89,2021-12-17 17:39:29.796875
2025,-23.61,2021-12-17 17:39:29.812500
2026,-25.2,2021-12-17 17:39:29.828125
2027,-26.13,2021-12-17 17:39:29.843750
2028,-26.83,2021-12-17 17:39:29.859375
2029,-27.45,2021-12-17 17:39:29.875000
2030,-27.81,2021-12-17 17:39:29.890625
2031,-27.32,2021-12-17 17:39:29.906250
2032,-25.28,2021-12-17 17:39:29.921875
2033,-21.16,2021-12-17 17:39:29.937500
2034,-14.97,2021-12-17 17:39:29.953125
2035,-7.33,2021-12-17 17:39:29.968750
2036,0.63,2021-12-17 17:39:29.984375
2037,7.65,2021-12-17 17:39:30.000000
2038,12.74,2021-12-17 17:39:30.015625
2039,15.41,2021-12-17 17:39:30.031250
2040,15.79,2021-12-17 17:39:30.046875
2041,14.41,2021-12-17 17:39:30.062500
2042,12.0,2021-12-17 17:39:30.078125
2043,9.23,2021-12-17 17:39:30.093750
2044,6.57,2021-12-17 17:39:30.109375
2045,4.3,2021-12-17 17:39:30.125000
2046,2.53,2021-12-17 17:39:30.140625
2047,1.26,2021-12-17 17:39:30.156250
2048,0.42,2021-12-17 17:39:30.171875
2049,-0.09,2021-12-17 17:39:30.187500
2050,-0.38,2021-12-17 17:39:30.203125
2051,-0.58,2021-12-17 17:39:30.218750
2052,-0.78,2021-12-17 17:39:30.234375
2053,-1.04,2021-12-17 17:39:30.250000
2054,-1.32,2021-12-17 17:39:30.265625
2055,-1.49,2021-12-17 17:39:30.281250
2056,-1.34,2021-12-17 17:39:30.296875
2057,-0.69,2021-12-17 17:39:30.312500
2058,0.5,2021-12-17 17:39:30.328125
2059,2.09,2021-12-17 17:39:30.343750
2060,3.73,2021-12-17 17:39:30.359375
2061,5.05,2021-12-17 17:39:30.375000
2062,5.73,2021-12-17 17:39:30.390625
2063,5.57,2021-12-17 17:39:30.406250
2064,4.6,2021-12-17 17:39:30.421875
2065,3.06,2021-12-17 17:39:30.437500
2066,1.3,2021-12-17 17:39:30.453125
2067,-0.23,2021-12-17 17:39:30.468750
2068,-1.15,2021-12-17 17:39:30.484375
2069,-1.29,2021-12-17 17:39:30.500000
2070,-0.72,2021-12-17 17:39:30.515625
2071,0.25,2021-12-17 17:39:30.531250
2072,1.15,2021-12-17 17:39:30.546875
2073,1.54,2021-12-17 17:39:30.562500
2074,1.19,2021-12-17 17:39:30.578125
2075,0.15,2021-12-17 17:39:30.593750
2076,-1.34,2021-12-17 17:39:30.609375
2077,-2.97,2021-12-17 17:39:30.625000
2078,-4.55,2021-12-17 17:39:30.640625
2079,-5.99,2021-12-17 17:39:30.656250
2080,-7.28,2021-12-17 17:39:30.671875
2081,-8.4,2021-12-17 17:39:30.687500
2082,-9.28,2021-12-17 17:39:30.703125
2083,-9.87,2021-12-17 17:39:30.718750
2084,-10.13,2021-12-17 17:39:30.734375
2085,-10.06,2021-12-17 17:39:30.750000
2086,-9.79,2021-12-17 17:39:30.765625
2087,-9.47,2021-12-17 17:39:30.781250
2088,-9.26,2021-12-17 17:39:30.796875
2089,-9.27,2021-12-17 17:39:30.812500
2090,-9.53,2021-12-17 17:39:30.828125
2091,-10.0,2021-12-17 17:39:30.843750
2092,-10.59,2021-12-17 17:39:30.859375
2093,-11.18,2021-12-17 17:39:30.875000
2094,-11.7,2021-12-17 17:39:30.890625
2095,-12.16,2021-12-17 17:39:30.906250
2096,-12.58,2021-12-17 17:39:30.921875
2097,-12.97,2021-12-17 17:39:30.937500
2098,-13.34,2021-12-17 17:39:30.953125
2099,-13.58,2021-12-17 17:39:30.968750
2100,-13.55,2021-12-17 17:39:30.984375
2101,-13.22,2021-12-17 17:39:31.000000
2102,-12.54,2021-12-17 17:39:31.015625
2103,-11.55,2021-12-17 17:39:31.031250
2104,-10.27,2021-12-17 17:39:31.046875
2105,-8.71,2021-12-17 17:39:31.062500
2106,-6.96,2021-12-17 17:39:31.078125
2107,-5.18,2021-12-17 17:39:31.093750
2108,-3.68,2021-12-17 17:39:31.109375
2109,-2.82,2021-12-17 17:39:31.125000
2110,-2.9,2021-12-17 17:39:31.140625
2111,-4.06,2021-12-17 17:39:31.156250
2112,-6.23,2021-12-17 17:39:31.171875
2113,-9.09,2021-12-17 17:39:31.187500
2114,-12.22,2021-12-17 17:39:31.203125
2115,-15.12,2021-12-17 17:39:31.218750
2116,-17.28,2021-12-17 17:39:31.234375
2117,-18.25,2021-12-17 17:39:31.250000
2118,-17.74,2021-12-17 17:39:31.265625
2119,-15.67,2021-12-17 17:39:31.281250
2120,-12.25,2021-12-17 17:39:31.296875
2121,-7.88,2021-12-17 17:39:31.312500
2122,-2.91,2021-12-17 17:39:31.328125
2123,2.53,2021-12-17 17:39:31.343750
2124,8.58,2021-12-17 17:39:31.359375
2125,15.68,2021-12-17 17:39:31.375000
2126,24.15,2021-12-17 17:39:31.390625
2127,34.03,2021-12-17 17:39:31.406250
2128,44.88,2021-12-17 17:39:31.421875
2129,55.89,2021-12-17 17:39:31.437500
2130,66.1,2021-12-17 17:39:31.453125
2131,74.73,2021-12-17 17:39:31.468750
2132,81.42,2021-12-17 17:39:31.484375
2133,86.16,2021-12-17 17:39:31.500000
2134,89.27,2021-12-17 17:39:31.515625
2135,91.17,2021-12-17 17:39:31.531250
2136,92.33,2021-12-17 17:39:31.546875
2137,93.21,2021-12-17 17:39:31.562500
2138,94.24,2021-12-17 17:39:31.578125
2139,95.91,2021-12-17 17:39:31.593750
2140,98.61,2021-12-17 17:39:31.609375
2141,102.69,2021-12-17 17:39:31.625000
2142,108.38,2021-12-17 17:39:31.640625
2143,115.71,2021-12-17 17:39:31.656250
2144,124.47,2021-12-17 17:39:31.671875
2145,134.21,2021-12-17 17:39:31.687500
2146,144.12,2021-12-17 17:39:31.703125
2147,153.06,2021-12-17 17:39:31.718750
2148,159.88,2021-12-17 17:39:31.734375
2149,163.76,2021-12-17 17:39:31.750000
2150,164.35,2021-12-17 17:39:31.765625
2151,161.8,2021-12-17 17:39:31.781250
2152,156.19,2021-12-17 17:39:31.796875
2153,147.08,2021-12-17 17:39:31.812500
2154,133.31,2021-12-17 17:39:31.828125
2155,113.41,2021-12-17 17:39:31.843750
2156,86.27,2021-12-17 17:39:31.859375
2157,51.99,2021-12-17 17:39:31.875000
2158,12.07,2021-12-17 17:39:31.890625
2159,-30.83,2021-12-17 17:39:31.906250
2160,-73.85,2021-12-17 17:39:31.921875
2161,-114.84,2021-12-17 17:39:31.937500
2162,-152.98,2021-12-17 17:39:31.953125
2163,-188.88,2021-12-17 17:39:31.968750
2164,-223.94,2021-12-17 17:39:31.984375
2165,-259.8,2021-12-17 17:39:32.000000
2166,-297.82,2021-12-17 17:39:32.015625
2167,-339.02,2021-12-17 17:39:32.031250
2168,-383.72,2021-12-17 17:39:32.046875
2169,-430.82,2021-12-17 17:39:32.062500
2170,-476.99,2021-12-17 17:39:32.078125
2171,-516.18,2021-12-17 17:39:32.093750
2172,-540.52,2021-12-17 17:39:32.109375
2173,-542.32,2021-12-17 17:39:32.125000
2174,-516.88,2021-12-17 17:39:32.140625
2175,-464.55,2021-12-17 17:39:32.156250
2176,-391.1,2021-12-17 17:39:32.171875
2177,-305.8,2021-12-17 17:39:32.187500
2178,-218.52,2021-12-17 17:39:32.203125
2179,-136.97,2021-12-17 17:39:32.218750
2180,-65.28,2021-12-17 17:39:32.234375
2181,-4.53,2021-12-17 17:39:32.250000
2182,45.84,2021-12-17 17:39:32.265625
2183,86.79,2021-12-17 17:39:32.281250
2184,119.28,2021-12-17 17:39:32.296875
2185,144.79,2021-12-17 17:39:32.312500
2186,166.01,2021-12-17 17:39:32.328125
2187,186.82,2021-12-17 17:39:32.343750
2188,211.4,2021-12-17 17:39:32.359375
2189,242.58,2021-12-17 17:39:32.375000
2190,280.47,2021-12-17 17:39:32.390625
2191,321.84,2021-12-17 17:39:32.406250
2192,360.63,2021-12-17 17:39:32.421875
2193,389.84,2021-12-17 17:39:32.437500
2194,403.96,2021-12-17 17:39:32.453125
2195,400.72,2021-12-17 17:39:32.468750
2196,381.78,2021-12-17 17:39:32.484375
2197,351.89,2021-12-17 17:39:32.500000
2198,316.87,2021-12-17 17:39:32.515625
2199,281.61,2021-12-17 17:39:32.531250
2200,248.87,2021-12-17 17:39:32.546875
2201,219.24,2021-12-17 17:39:32.562500
2202,192.11,2021-12-17 17:39:32.578125
2203,166.85,2021-12-17 17:39:32.593750
2204,143.44,2021-12-17 17:39:32.609375
2205,122.41,2021-12-17 17:39:32.625000
2206,104.33,2021-12-17 17:39:32.640625
2207,89.25,2021-12-17 17:39:32.656250
2208,76.47,2021-12-17 17:39:32.671875
2209,64.88,2021-12-17 17:39:32.687500
2210,53.47,2021-12-17 17:39:32.703125
2211,41.77,2021-12-17 17:39:32.718750
2212,30.15,2021-12-17 17:39:32.734375
2213,19.5,2021-12-17 17:39:32.750000
2214,10.69,2021-12-17 17:39:32.765625
2215,4.08,2021-12-17 17:39:32.781250
2216,-0.73,2021-12-17 17:39:32.796875
2217,-4.79,2021-12-17 17:39:32.812500
2218,-9.32,2021-12-17 17:39:32.828125
2219,-15.18,2021-12-17 17:39:32.843750
2220,-22.57,2021-12-17 17:39:32.859375
2221,-31.04,2021-12-17 17:39:32.875000
2222,-39.9,2021-12-17 17:39:32.890625
2223,-48.69,2021-12-17 17:39:32.906250
2224,-57.37,2021-12-17 17:39:32.921875
2225,-66.32,2021-12-17 17:39:32.937500
2226,-76.12,2021-12-17 17:39:32.953125
2227,-87.11,2021-12-17 17:39:32.968750
2228,-99.19,2021-12-17 17:39:32.984375
2229,-111.84,2021-12-17 17:39:33.000000
2230,-124.16,2021-12-17 17:39:33.015625
2231,-135.14,2021-12-17 17:39:33.031250
2232,-143.89,2021-12-17 17:39:33.046875
2233,-149.7,2021-12-17 17:39:33.062500
2234,-152.23,2021-12-17 17:39:33.078125
2235,-151.56,2021-12-17 17:39:33.093750
2236,-148.09,2021-12-17 17:39:33.109375
2237,-142.52,2021-12-17 17:39:33.125000
2238,-135.61,2021-12-17 17:39:33.140625
2239,-127.98,2021-12-17 17:39:33.156250
2240,-119.98,2021-12-17 17:39:33.171875
2241,-111.82,2021-12-17 17:39:33.187500
2242,-103.64,2021-12-17 17:39:33.203125
2243,-95.67,2021-12-17 17:39:33.218750
2244,-88.27,2021-12-17 17:39:33.234375
2245,-81.78,2021-12-17 17:39:33.250000
2246,-76.29,2021-12-17 17:39:33.265625
2247,-71.58,2021-12-17 17:39:33.281250
2248,-67.19,2021-12-17 17:39:33.296875
2249,-62.53,2021-12-17 17:39:33.312500
2250,-57.23,2021-12-17 17:39:33.328125
2251,-51.12,2021-12-17 17:39:33.343750
2252,-44.24,2021-12-17 17:39:33.359375
2253,-36.7,2021-12-17 17:39:33.375000
2254,-28.6,2021-12-17 17:39:33.390625
2255,-19.98,2021-12-17 17:39:33.406250
2256,-10.97,2021-12-17 17:39:33.421875
2257,-1.86,2021-12-17 17:39:33.437500
2258,6.98,2021-12-17 17:39:33.453125
2259,15.06,2021-12-17 17:39:33.468750
2260,21.99,2021-12-17 17:39:33.484375
2261,27.5,2021-12-17 17:39:33.500000
2262,31.46,2021-12-17 17:39:33.515625
2263,33.88,2021-12-17 17:39:33.531250
2264,34.9,2021-12-17 17:39:33.546875
2265,34.75,2021-12-17 17:39:33.562500
2266,33.68,2021-12-17 17:39:33.578125
2267,32.03,2021-12-17 17:39:33.593750
2268,30.08,2021-12-17 17:39:33.609375
2269,28.09,2021-12-17 17:39:33.625000
2270,26.27,2021-12-17 17:39:33.640625
2271,24.72,2021-12-17 17:39:33.656250
2272,23.42,2021-12-17 17:39:33.671875
2273,22.22,2021-12-17 17:39:33.687500
2274,20.84,2021-12-17 17:39:33.703125
2275,19.03,2021-12-17 17:39:33.718750
2276,16.72,2021-12-17 17:39:33.734375
2277,14.08,2021-12-17 17:39:33.750000
2278,11.45,2021-12-17 17:39:33.765625
2279,9.25,2021-12-17 17:39:33.781250
2280,7.67,2021-12-17 17:39:33.796875
2281,6.7,2021-12-17 17:39:33.812500
2282,6.18,2021-12-17 17:39:33.828125
2283,6.0,2021-12-17 17:39:33.843750
2284,6.1,2021-12-17 17:39:33.859375
2285,6.56,2021-12-17 17:39:33.875000
2286,7.38,2021-12-17 17:39:33.890625
2287,8.44,2021-12-17 17:39:33.906250
2288,9.64,2021-12-17 17:39:33.921875
2289,10.88,2021-12-17 17:39:33.937500
2290,12.19,2021-12-17 17:39:33.953125
2291,13.75,2021-12-17 17:39:33.968750
2292,15.71,2021-12-17 17:39:33.984375
2293,18.02,2021-12-17 17:39:34.000000
2294,20.48,2021-12-17 17:39:34.015625
2295,22.73,2021-12-17 17:39:34.031250
2296,24.44,2021-12-17 17:39:34.046875
2297,25.44,2021-12-17 17:39:34.062500
2298,25.58,2021-12-17 17:39:34.078125
2299,24.72,2021-12-17 17:39:34.093750
2300,22.71,2021-12-17 17:39:34.109375
2301,19.46,2021-12-17 17:39:34.125000
2302,15.04,2021-12-17 17:39:34.140625
2303,9.8,2021-12-17 17:39:34.156250
2304,4.29,2021-12-17 17:39:34.171875
2305,-0.93,2021-12-17 17:39:34.187500
2306,-5.34,2021-12-17 17:39:34.203125
2307,-8.58,2021-12-17 17:39:34.218750
2308,-10.46,2021-12-17 17:39:34.234375
2309,-10.97,2021-12-17 17:39:34.250000
2310,-10.3,2021-12-17 17:39:34.265625
2311,-8.81,2021-12-17 17:39:34.281250
2312,-6.98,2021-12-17 17:39:34.296875
2313,-5.32,2021-12-17 17:39:34.312500
2314,-4.19,2021-12-17 17:39:34.328125
2315,-3.7,2021-12-17 17:39:34.343750
2316,-3.68,2021-12-17 17:39:34.359375
2317,-3.85,2021-12-17 17:39:34.375000
2318,-3.92,2021-12-17 17:39:34.390625
2319,-3.8,2021-12-17 17:39:34.406250
2320,-3.64,2021-12-17 17:39:34.421875
2321,-3.7,2021-12-17 17:39:34.437500
2322,-4.3,2021-12-17 17:39:34.453125
2323,-5.71,2021-12-17 17:39:34.468750
2324,-7.98,2021-12-17 17:39:34.484375
2325,-10.99,2021-12-17 17:39:34.500000
2326,-14.43,2021-12-17 17:39:34.515625
2327,-17.91,2021-12-17 17:39:34.531250
2328,-21.04,2021-12-17 17:39:34.546875
2329,-23.54,2021-12-17 17:39:34.562500
2330,-25.26,2021-12-17 17:39:34.578125
2331,-26.17,2021-12-17 17:39:34.593750
2332,-26.34,2021-12-17 17:39:34.609375
2333,-25.85,2021-12-17 17:39:34.625000
2334,-24.85,2021-12-17 17:39:34.640625
2335,-23.49,2021-12-17 17:39:34.656250
2336,-22.0,2021-12-17 17:39:34.671875
2337,-20.58,2021-12-17 17:39:34.687500
2338,-19.39,2021-12-17 17:39:34.703125
2339,-18.46,2021-12-17 17:39:34.718750
2340,-17.73,2021-12-17 17:39:34.734375
2341,-17.06,2021-12-17 17:39:34.750000
2342,-16.29,2021-12-17 17:39:34.765625
2343,-15.35,2021-12-17 17:39:34.781250
2344,-14.22,2021-12-17 17:39:34.796875
2345,-12.96,2021-12-17 17:39:34.812500
2346,-11.63,2021-12-17 17:39:34.828125
2347,-10.31,2021-12-17 17:39:34.843750
2348,-9.07,2021-12-17 17:39:34.859375
2349,-8.0,2021-12-17 17:39:34.875000
2350,-7.19,2021-12-17 17:39:34.890625
2351,-6.67,2021-12-17 17:39:34.906250
2352,-6.43,2021-12-17 17:39:34.921875
2353,-6.39,2021-12-17 17:39:34.937500
2354,-6.43,2021-12-17 17:39:34.953125
2355,-6.44,2021-12-17 17:39:34.968750
2356,-6.35,2021-12-17 17:39:34.984375
2357,-6.12,2021-12-17 17:39:35.000000
2358,-5.75,2021-12-17 17:39:35.015625
2359,-5.27,2021-12-17 17:39:35.031250
2360,-4.71,2021-12-17 17:39:35.046875
2361,-4.11,2021-12-17 17:39:35.062500
2362,-3.53,2021-12-17 17:39:35.078125
2363,-3.0,2021-12-17 17:39:35.093750
2364,-2.52,2021-12-17 17:39:35.109375
2365,-2.1,2021-12-17 17:39:35.125000
2366,-1.74,2021-12-17 17:39:35.140625
2367,-1.49,2021-12-17 17:39:35.156250
2368,-1.44,2021-12-17 17:39:35.171875
2369,-1.62,2021-12-17 17:39:35.187500
2370,-1.96,2021-12-17 17:39:35.203125
2371,-2.26,2021-12-17 17:39:35.218750
2372,-2.33,2021-12-17 17:39:35.234375
2373,-2.02,2021-12-17 17:39:35.250000
2374,-1.4,2021-12-17 17:39:35.265625
2375,-0.64,2021-12-17 17:39:35.281250
2376,0.09,2021-12-17 17:39:35.296875
2377,0.63,2021-12-17 17:39:35.312500
2378,0.95,2021-12-17 17:39:35.328125
2379,1.09,2021-12-17 17:39:35.343750
2380,1.07,2021-12-17 17:39:35.359375
2381,0.87,2021-12-17 17:39:35.375000
2382,0.49,2021-12-17 17:39:35.390625
2383,-0.07,2021-12-17 17:39:35.406250
2384,-0.7,2021-12-17 17:39:35.421875
2385,-1.24,2021-12-17 17:39:35.437500
2386,-1.66,2021-12-17 17:39:35.453125
2387,-1.95,2021-12-17 17:39:35.468750
2388,-2.24,2021-12-17 17:39:35.484375
2389,-2.61,2021-12-17 17:39:35.500000
2390,-3.14,2021-12-17 17:39:35.515625
2391,-3.74,2021-12-17 17:39:35.531250
2392,-4.3,2021-12-17 17:39:35.546875
2393,-4.73,2021-12-17 17:39:35.562500
2394,-5.0,2021-12-17 17:39:35.578125
2395,-5.21,2021-12-17 17:39:35.593750
2396,-5.49,2021-12-17 17:39:35.609375
2397,-5.94,2021-12-17 17:39:35.625000
2398,-6.58,2021-12-17 17:39:35.640625
2399,-7.36,2021-12-17 17:39:35.656250
2400,-8.13,2021-12-17 17:39:35.671875
2401,-8.78,2021-12-17 17:39:35.687500
2402,-9.21,2021-12-17 17:39:35.703125
2403,-9.42,2021-12-17 17:39:35.718750
2404,-9.5,2021-12-17 17:39:35.734375
2405,-9.53,2021-12-17 17:39:35.750000
2406,-9.65,2021-12-17 17:39:35.765625
2407,-9.96,2021-12-17 17:39:35.781250
2408,-10.48,2021-12-17 17:39:35.796875
2409,-11.23,2021-12-17 17:39:35.812500
2410,-12.17,2021-12-17 17:39:35.828125
2411,-13.22,2021-12-17 17:39:35.843750
2412,-14.2,2021-12-17 17:39:35.859375
2413,-14.93,2021-12-17 17:39:35.875000
2414,-15.18,2021-12-17 17:39:35.890625
2415,-14.83,2021-12-17 17:39:35.906250
2416,-13.93,2021-12-17 17:39:35.921875
2417,-12.63,2021-12-17 17:39:35.937500
2418,-11.17,2021-12-17 17:39:35.953125
2419,-9.74,2021-12-17 17:39:35.968750
2420,-8.5,2021-12-17 17:39:35.984375
2421,-7.46,2021-12-17 17:39:36.000000
2422,-6.62,2021-12-17 17:39:36.015625
2423,-5.91,2021-12-17 17:39:36.031250
2424,-5.27,2021-12-17 17:39:36.046875
2425,-4.59,2021-12-17 17:39:36.062500
2426,-3.74,2021-12-17 17:39:36.078125
2427,-2.56,2021-12-17 17:39:36.093750
2428,-1.01,2021-12-17 17:39:36.109375
2429,0.81,2021-12-17 17:39:36.125000
2430,2.64,2021-12-17 17:39:36.140625
2431,4.2,2021-12-17 17:39:36.156250
2432,5.26,2021-12-17 17:39:36.171875
2433,5.82,2021-12-17 17:39:36.187500
2434,6.06,2021-12-17 17:39:36.203125
2435,6.24,2021-12-17 17:39:36.218750
2436,6.56,2021-12-17 17:39:36.234375
2437,7.13,2021-12-17 17:39:36.250000
2438,7.94,2021-12-17 17:39:36.265625
2439,8.9,2021-12-17 17:39:36.281250
2440,9.93,2021-12-17 17:39:36.296875
2441,10.95,2021-12-17 17:39:36.312500
2442,11.88,2021-12-17 17:39:36.328125
2443,12.7,2021-12-17 17:39:36.343750
2444,13.4,2021-12-17 17:39:36.359375
2445,13.99,2021-12-17 17:39:36.375000
2446,14.53,2021-12-17 17:39:36.390625
2447,15.0,2021-12-17 17:39:36.406250
2448,15.35,2021-12-17 17:39:36.421875
2449,15.42,2021-12-17 17:39:36.437500
2450,15.07,2021-12-17 17:39:36.453125
2451,14.25,2021-12-17 17:39:36.468750
2452,13.09,2021-12-17 17:39:36.484375
2453,11.87,2021-12-17 17:39:36.500000
2454,10.95,2021-12-17 17:39:36.515625
2455,10.63,2021-12-17 17:39:36.531250
2456,10.96,2021-12-17 17:39:36.546875
2457,11.71,2021-12-17 17:39:36.562500
2458,12.47,2021-12-17 17:39:36.578125
2459,12.8,2021-12-17 17:39:36.593750
2460,12.45,2021-12-17 17:39:36.609375
2461,11.58,2021-12-17 17:39:36.625000
2462,10.73,2021-12-17 17:39:36.640625
2463,10.62,2021-12-17 17:39:36.656250
2464,11.89,2021-12-17 17:39:36.671875
2465,14.67,2021-12-17 17:39:36.687500
2466,18.56,2021-12-17 17:39:36.703125
2467,22.7,2021-12-17 17:39:36.718750
2468,26.26,2021-12-17 17:39:36.734375
2469,28.87,2021-12-17 17:39:36.750000
2470,30.87,2021-12-17 17:39:36.765625
2471,33.25,2021-12-17 17:39:36.781250
2472,37.13,2021-12-17 17:39:36.796875
2473,43.11,2021-12-17 17:39:36.812500
2474,50.82,2021-12-17 17:39:36.828125
2475,58.93,2021-12-17 17:39:36.843750
2476,65.64,2021-12-17 17:39:36.859375
2477,69.37,2021-12-17 17:39:36.875000
2478,69.49,2021-12-17 17:39:36.890625
2479,66.55,2021-12-17 17:39:36.906250
2480,62.08,2021-12-17 17:39:36.921875
2481,57.92,2021-12-17 17:39:36.937500
2482,55.49,2021-12-17 17:39:36.953125
2483,55.25,2021-12-17 17:39:36.968750
2484,56.43,2021-12-17 17:39:36.984375
2485,57.06,2021-12-17 17:39:37.000000
2486,54.28,2021-12-17 17:39:37.015625
2487,44.81,2021-12-17 17:39:37.031250
2488,25.66,2021-12-17 17:39:37.046875
2489,-4.96,2021-12-17 17:39:37.062500
2490,-46.67,2021-12-17 17:39:37.078125
2491,-96.24,2021-12-17 17:39:37.093750
2492,-147.89,2021-12-17 17:39:37.109375
2493,-194.63,2021-12-17 17:39:37.125000
2494,-230.46,2021-12-17 17:39:37.140625
2495,-252.32,2021-12-17 17:39:37.156250
2496,-260.79,2021-12-17 17:39:37.171875
2497,-259.35,2021-12-17 17:39:37.187500
2498,-252.43,2021-12-17 17:39:37.203125
2499,-243.44,2021-12-17 17:39:37.218750
2500,-233.71,2021-12-17 17:39:37.234375
2501,-222.83,2021-12-17 17:39:37.250000
2502,-209.79,2021-12-17 17:39:37.265625
2503,-194.05,2021-12-17 17:39:37.281250
2504,-176.16,2021-12-17 17:39:37.296875
2505,-157.3,2021-12-17 17:39:37.312500
2506,-138.56,2021-12-17 17:39:37.328125
2507,-120.02,2021-12-17 17:39:37.343750
2508,-100.48,2021-12-17 17:39:37.359375
2509,-77.96,2021-12-17 17:39:37.375000
2510,-50.8,2021-12-17 17:39:37.390625
2511,-18.94,2021-12-17 17:39:37.406250
2512,15.46,2021-12-17 17:39:37.421875
2513,48.02,2021-12-17 17:39:37.437500
2514,73.57,2021-12-17 17:39:37.453125
2515,88.07,2021-12-17 17:39:37.468750
2516,90.24,2021-12-17 17:39:37.484375
2517,82.18,2021-12-17 17:39:37.500000
2518,68.22,2021-12-17 17:39:37.515625
2519,53.05,2021-12-17 17:39:37.531250
2520,39.87,2021-12-17 17:39:37.546875
2521,29.7,2021-12-17 17:39:37.562500
2522,22.05,2021-12-17 17:39:37.578125
2523,16.31,2021-12-17 17:39:37.593750
2524,12.71,2021-12-17 17:39:37.609375
2525,12.55,2021-12-17 17:39:37.625000
2526,17.35,2021-12-17 17:39:37.640625
2527,27.72,2021-12-17 17:39:37.656250
2528,42.71,2021-12-17 17:39:37.671875
2529,59.67,2021-12-17 17:39:37.687500
2530,75.02,2021-12-17 17:39:37.703125
2531,85.46,2021-12-17 17:39:37.718750
2532,89.09,2021-12-17 17:39:37.734375
2533,86.08,2021-12-17 17:39:37.750000
2534,78.49,2021-12-17 17:39:37.765625
2535,69.44,2021-12-17 17:39:37.781250
2536,61.75,2021-12-17 17:39:37.796875
2537,57.0,2021-12-17 17:39:37.812500
2538,55.05,2021-12-17 17:39:37.828125
2539,54.42,2021-12-17 17:39:37.843750
2540,53.43,2021-12-17 17:39:37.859375
2541,51.28,2021-12-17 17:39:37.875000
2542,48.42,2021-12-17 17:39:37.890625
2543,46.32,2021-12-17 17:39:37.906250
2544,46.58,2021-12-17 17:39:37.921875
2545,50.02,2021-12-17 17:39:37.937500
2546,56.3,2021-12-17 17:39:37.953125
2547,64.21,2021-12-17 17:39:37.968750
2548,72.24,2021-12-17 17:39:37.984375
2549,79.18,2021-12-17 17:39:38.000000
2550,84.43,2021-12-17 17:39:38.015625
2551,87.71,2021-12-17 17:39:38.031250
2552,88.84,2021-12-17 17:39:38.046875
2553,87.44,2021-12-17 17:39:38.062500
2554,83.06,2021-12-17 17:39:38.078125
2555,75.51,2021-12-17 17:39:38.093750
2556,65.35,2021-12-17 17:39:38.109375
2557,53.84,2021-12-17 17:39:38.125000
2558,42.69,2021-12-17 17:39:38.140625
2559,33.27,2021-12-17 17:39:38.156250
2560,26.02,2021-12-17 17:39:38.171875
2561,20.11,2021-12-17 17:39:38.187500
2562,13.79,2021-12-17 17:39:38.203125
2563,4.94,2021-12-17 17:39:38.218750
2564,-8.1,2021-12-17 17:39:38.234375
2565,-25.89,2021-12-17 17:39:38.250000
2566,-47.68,2021-12-17 17:39:38.265625
2567,-71.41,2021-12-17 17:39:38.281250
2568,-94.23,2021-12-17 17:39:38.296875
2569,-113.14,2021-12-17 17:39:38.312500
2570,-125.85,2021-12-17 17:39:38.328125
2571,-131.59,2021-12-17 17:39:38.343750
2572,-131.56,2021-12-17 17:39:38.359375
2573,-128.55,2021-12-17 17:39:38.375000
2574,-125.72,2021-12-17 17:39:38.390625
2575,-124.99,2021-12-17 17:39:38.406250
2576,-125.67,2021-12-17 17:39:38.421875
2577,-124.27,2021-12-17 17:39:38.437500
2578,-115.63,2021-12-17 17:39:38.453125
2579,-95.14,2021-12-17 17:39:38.468750
2580,-60.88,2021-12-17 17:39:38.484375
2581,-14.66,2021-12-17 17:39:38.500000
2582,38.55,2021-12-17 17:39:38.515625
2583,92.26,2021-12-17 17:39:38.531250
2584,140.43,2021-12-17 17:39:38.546875
2585,179.0,2021-12-17 17:39:38.562500
2586,206.13,2021-12-17 17:39:38.578125
2587,221.96,2021-12-17 17:39:38.593750
2588,227.81,2021-12-17 17:39:38.609375
2589,225.66,2021-12-17 17:39:38.625000
2590,217.81,2021-12-17 17:39:38.640625
2591,206.58,2021-12-17 17:39:38.656250
2592,194.02,2021-12-17 17:39:38.671875
2593,181.43,2021-12-17 17:39:38.687500
2594,169.12,2021-12-17 17:39:38.703125
2595,156.55,2021-12-17 17:39:38.718750
2596,142.61,2021-12-17 17:39:38.734375
2597,126.49,2021-12-17 17:39:38.750000
2598,108.01,2021-12-17 17:39:38.765625
2599,87.99,2021-12-17 17:39:38.781250
2600,68.11,2021-12-17 17:39:38.796875
2601,50.37,2021-12-17 17:39:38.812500
2602,36.58,2021-12-17 17:39:38.828125
2603,27.76,2021-12-17 17:39:38.843750
2604,23.8,2021-12-17 17:39:38.859375
2605,23.21,2021-12-17 17:39:38.875000
2606,23.52,2021-12-17 17:39:38.890625
2607,21.94,2021-12-17 17:39:38.906250
2608,16.34,2021-12-17 17:39:38.921875
2609,6.05,2021-12-17 17:39:38.937500
2610,-7.77,2021-12-17 17:39:38.953125
2611,-22.66,2021-12-17 17:39:38.968750
2612,-35.91,2021-12-17 17:39:38.984375
2613,-45.65,2021-12-17 17:39:39.000000
2614,-51.45,2021-12-17 17:39:39.015625
2615,-54.02,2021-12-17 17:39:39.031250
2616,-54.56,2021-12-17 17:39:39.046875
2617,-53.77,2021-12-17 17:39:39.062500
2618,-51.44,2021-12-17 17:39:39.078125
2619,-46.72,2021-12-17 17:39:39.093750
2620,-38.67,2021-12-17 17:39:39.109375
2621,-26.93,2021-12-17 17:39:39.125000
2622,-11.88,2021-12-17 17:39:39.140625
2623,5.55,2021-12-17 17:39:39.156250
2624,24.35,2021-12-17 17:39:39.171875
2625,43.72,2021-12-17 17:39:39.187500
2626,63.18,2021-12-17 17:39:39.203125
2627,82.31,2021-12-17 17:39:39.218750
2628,100.54,2021-12-17 17:39:39.234375
2629,117.1,2021-12-17 17:39:39.250000
2630,131.2,2021-12-17 17:39:39.265625
2631,142.3,2021-12-17 17:39:39.281250
2632,150.46,2021-12-17 17:39:39.296875
2633,156.37,2021-12-17 17:39:39.312500
2634,161.23,2021-12-17 17:39:39.328125
2635,166.23,2021-12-17 17:39:39.343750
2636,172.12,2021-12-17 17:39:39.359375
2637,178.62,2021-12-17 17:39:39.375000
2638,184.26,2021-12-17 17:39:39.390625
2639,186.54,2021-12-17 17:39:39.406250
2640,182.44,2021-12-17 17:39:39.421875
2641,169.18,2021-12-17 17:39:39.437500
2642,145.13,2021-12-17 17:39:39.453125
2643,110.43,2021-12-17 17:39:39.468750
2644,67.13,2021-12-17 17:39:39.484375
2645,18.79,2021-12-17 17:39:39.500000
2646,-30.67,2021-12-17 17:39:39.515625
2647,-78.1,2021-12-17 17:39:39.531250
2648,-122.0,2021-12-17 17:39:39.546875
2649,-162.54,2021-12-17 17:39:39.562500
2650,-200.81,2021-12-17 17:39:39.578125
2651,-237.74,2021-12-17 17:39:39.593750
2652,-273.3,2021-12-17 17:39:39.609375
2653,-306.54,2021-12-17 17:39:39.625000
2654,-335.96,2021-12-17 17:39:39.640625
2655,-360.47,2021-12-17 17:39:39.656250
2656,-379.97,2021-12-17 17:39:39.671875
2657,-395.36,2021-12-17 17:39:39.687500
2658,-408.18,2021-12-17 17:39:39.703125
2659,-420.33,2021-12-17 17:39:39.718750
2660,-433.83,2021-12-17 17:39:39.734375
2661,-450.51,2021-12-17 17:39:39.750000
2662,-471.28,2021-12-17 17:39:39.765625
2663,-494.91,2021-12-17 17:39:39.781250
2664,-517.48,2021-12-17 17:39:39.796875
2665,-532.69,2021-12-17 17:39:39.812500
2666,-533.93,2021-12-17 17:39:39.828125
2667,-517.03,2021-12-17 17:39:39.843750
2668,-482.43,2021-12-17 17:39:39.859375
2669,-435.33,2021-12-17 17:39:39.875000
2670,-383.77,2021-12-17 17:39:39.890625
2671,-335.37,2021-12-17 17:39:39.906250
2672,-294.63,2021-12-17 17:39:39.921875
2673,-262.1,2021-12-17 17:39:39.937500
2674,-235.41,2021-12-17 17:39:39.953125
2675,-211.49,2021-12-17 17:39:39.968750
2676,-188.29,2021-12-17 17:39:39.984375
2677,-165.15,2021-12-17 17:39:40.000000
2678,-142.09,2021-12-17 17:39:40.015625
2679,-118.78,2021-12-17 17:39:40.031250
2680,-94.09,2021-12-17 17:39:40.046875
2681,-66.58,2021-12-17 17:39:40.062500
2682,-35.48,2021-12-17 17:39:40.078125
2683,-1.41,2021-12-17 17:39:40.093750
2684,33.67,2021-12-17 17:39:40.109375
2685,66.96,2021-12-17 17:39:40.125000
2686,96.06,2021-12-17 17:39:40.140625
2687,119.75,2021-12-17 17:39:40.156250
2688,138.4,2021-12-17 17:39:40.171875
2689,153.69,2021-12-17 17:39:40.187500
2690,167.81,2021-12-17 17:39:40.203125
2691,182.69,2021-12-17 17:39:40.218750
2692,199.51,2021-12-17 17:39:40.234375
2693,218.65,2021-12-17 17:39:40.250000
2694,239.95,2021-12-17 17:39:40.265625
2695,262.88,2021-12-17 17:39:40.281250
2696,286.57,2021-12-17 17:39:40.296875
2697,309.67,2021-12-17 17:39:40.312500
2698,330.37,2021-12-17 17:39:40.328125
2699,346.6,2021-12-17 17:39:40.343750
2700,356.52,2021-12-17 17:39:40.359375
2701,359.02,2021-12-17 17:39:40.375000
2702,353.98,2021-12-17 17:39:40.390625
2703,342.18,2021-12-17 17:39:40.406250
2704,325.04,2021-12-17 17:39:40.421875
2705,304.27,2021-12-17 17:39:40.437500
2706,281.59,2021-12-17 17:39:40.453125
2707,258.72,2021-12-17 17:39:40.468750
2708,237.28,2021-12-17 17:39:40.484375
2709,218.61,2021-12-17 17:39:40.500000
2710,203.52,2021-12-17 17:39:40.515625
2711,192.01,2021-12-17 17:39:40.531250
2712,183.25,2021-12-17 17:39:40.546875
2713,175.82,2021-12-17 17:39:40.562500
2714,168.22,2021-12-17 17:39:40.578125
2715,159.29,2021-12-17 17:39:40.593750
2716,148.53,2021-12-17 17:39:40.609375
2717,136.07,2021-12-17 17:39:40.625000
2718,122.56,2021-12-17 17:39:40.640625
2719,108.71,2021-12-17 17:39:40.656250
2720,95.07,2021-12-17 17:39:40.671875
2721,81.87,2021-12-17 17:39:40.687500
2722,69.07,2021-12-17 17:39:40.703125
2723,56.63,2021-12-17 17:39:40.718750
2724,44.58,2021-12-17 17:39:40.734375
2725,33.18,2021-12-17 17:39:40.750000
2726,22.71,2021-12-17 17:39:40.765625
2727,13.39,2021-12-17 17:39:40.781250
2728,5.24,2021-12-17 17:39:40.796875
2729,-1.87,2021-12-17 17:39:40.812500
2730,-8.19,2021-12-17 17:39:40.828125
2731,-13.87,2021-12-17 17:39:40.843750
2732,-18.96,2021-12-17 17:39:40.859375
2733,-23.41,2021-12-17 17:39:40.875000
2734,-27.12,2021-12-17 17:39:40.890625
2735,-29.99,2021-12-17 17:39:40.906250
2736,-32.01,2021-12-17 17:39:40.921875
2737,-33.2,2021-12-17 17:39:40.937500
2738,-33.65,2021-12-17 17:39:40.953125
2739,-33.55,2021-12-17 17:39:40.968750
2740,-33.06,2021-12-17 17:39:40.984375
2741,-32.29,2021-12-17 17:39:41.000000
2742,-31.34,2021-12-17 17:39:41.015625
2743,-30.19,2021-12-17 17:39:41.031250
2744,-28.81,2021-12-17 17:39:41.046875
2745,-27.15,2021-12-17 17:39:41.062500
2746,-25.25,2021-12-17 17:39:41.078125
2747,-23.13,2021-12-17 17:39:41.093750
2748,-20.91,2021-12-17 17:39:41.109375
2749,-18.63,2021-12-17 17:39:41.125000
2750,-16.3,2021-12-17 17:39:41.140625
2751,-13.99,2021-12-17 17:39:41.156250
2752,-11.79,2021-12-17 17:39:41.171875
2753,-9.83,2021-12-17 17:39:41.187500
2754,-8.26,2021-12-17 17:39:41.203125
2755,-7.11,2021-12-17 17:39:41.218750
2756,-6.25,2021-12-17 17:39:41.234375
2757,-5.43,2021-12-17 17:39:41.250000
2758,-4.41,2021-12-17 17:39:41.265625
2759,-3.05,2021-12-17 17:39:41.281250
2760,-1.42,2021-12-17 17:39:41.296875
2761,0.23,2021-12-17 17:39:41.312500
2762,1.65,2021-12-17 17:39:41.328125
2763,2.7,2021-12-17 17:39:41.343750
2764,3.47,2021-12-17 17:39:41.359375
2765,4.24,2021-12-17 17:39:41.375000
2766,5.34,2021-12-17 17:39:41.390625
2767,6.98,2021-12-17 17:39:41.406250
2768,9.11,2021-12-17 17:39:41.421875
2769,11.44,2021-12-17 17:39:41.437500
2770,13.51,2021-12-17 17:39:41.453125
2771,14.9,2021-12-17 17:39:41.468750
2772,15.39,2021-12-17 17:39:41.484375
2773,15.11,2021-12-17 17:39:41.500000
2774,14.52,2021-12-17 17:39:41.515625
2775,14.15,2021-12-17 17:39:41.531250
2776,14.51,2021-12-17 17:39:41.546875
2777,15.75,2021-12-17 17:39:41.562500
2778,17.63,2021-12-17 17:39:41.578125
2779,19.66,2021-12-17 17:39:41.593750
2780,21.26,2021-12-17 17:39:41.609375
2781,22.04,2021-12-17 17:39:41.625000
2782,21.99,2021-12-17 17:39:41.640625
2783,21.41,2021-12-17 17:39:41.656250
2784,20.63,2021-12-17 17:39:41.671875
2785,19.91,2021-12-17 17:39:41.687500
2786,19.31,2021-12-17 17:39:41.703125
2787,18.86,2021-12-17 17:39:41.718750
2788,18.58,2021-12-17 17:39:41.734375
2789,18.38,2021-12-17 17:39:41.750000
2790,17.64,2021-12-17 17:39:41.765625
2791,15.1,2021-12-17 17:39:41.781250
2792,9.12,2021-12-17 17:39:41.796875
2793,-1.56,2021-12-17 17:39:41.812500
2794,-16.87,2021-12-17 17:39:41.828125
2795,-34.94,2021-12-17 17:39:41.843750
2796,-52.56,2021-12-17 17:39:41.859375
2797,-66.27,2021-12-17 17:39:41.875000
2798,-73.7,2021-12-17 17:39:41.890625
2799,-74.13,2021-12-17 17:39:41.906250
2800,-68.24,2021-12-17 17:39:41.921875
2801,-57.13,2021-12-17 17:39:41.937500
2802,-41.57,2021-12-17 17:39:41.953125
2803,-21.8,2021-12-17 17:39:41.968750
2804,1.78,2021-12-17 17:39:41.984375
2805,27.88,2021-12-17 17:39:42.000000
2806,53.99,2021-12-17 17:39:42.015625
2807,76.89,2021-12-17 17:39:42.031250
2808,93.72,2021-12-17 17:39:42.046875
2809,102.99,2021-12-17 17:39:42.062500
2810,105.06,2021-12-17 17:39:42.078125
2811,101.66,2021-12-17 17:39:42.093750
2812,95.09,2021-12-17 17:39:42.109375
2813,87.31,2021-12-17 17:39:42.125000
2814,79.41,2021-12-17 17:39:42.140625
2815,71.69,2021-12-17 17:39:42.156250
2816,63.93,2021-12-17 17:39:42.171875
2817,55.95,2021-12-17 17:39:42.187500
2818,47.83,2021-12-17 17:39:42.203125
2819,40.0,2021-12-17 17:39:42.218750
2820,32.99,2021-12-17 17:39:42.234375
2821,27.15,2021-12-17 17:39:42.250000
2822,22.47,2021-12-17 17:39:42.265625
2823,18.62,2021-12-17 17:39:42.281250
2824,15.17,2021-12-17 17:39:42.296875
2825,11.72,2021-12-17 17:39:42.312500
2826,8.11,2021-12-17 17:39:42.328125
2827,4.38,2021-12-17 17:39:42.343750
2828,0.72,2021-12-17 17:39:42.359375
2829,-2.71,2021-12-17 17:39:42.375000
2830,-5.88,2021-12-17 17:39:42.390625
2831,-8.85,2021-12-17 17:39:42.406250
2832,-11.76,2021-12-17 17:39:42.421875
2833,-14.75,2021-12-17 17:39:42.437500
2834,-17.86,2021-12-17 17:39:42.453125
2835,-21.12,2021-12-17 17:39:42.468750
2836,-24.5,2021-12-17 17:39:42.484375
2837,-28.01,2021-12-17 17:39:42.500000
2838,-31.77,2021-12-17 17:39:42.515625
2839,-35.92,2021-12-17 17:39:42.531250
2840,-40.62,2021-12-17 17:39:42.546875
2841,-45.78,2021-12-17 17:39:42.562500
2842,-51.2,2021-12-17 17:39:42.578125
2843,-56.46,2021-12-17 17:39:42.593750
2844,-61.12,2021-12-17 17:39:42.609375
2845,-64.74,2021-12-17 17:39:42.625000
2846,-67.01,2021-12-17 17:39:42.640625
2847,-67.67,2021-12-17 17:39:42.656250
2848,-66.62,2021-12-17 17:39:42.671875
2849,-63.8,2021-12-17 17:39:42.687500
2850,-59.24,2021-12-17 17:39:42.703125
2851,-53.39,2021-12-17 17:39:42.718750
2852,-47.1,2021-12-17 17:39:42.734375
2853,-41.42,2021-12-17 17:39:42.750000
2854,-37.18,2021-12-17 17:39:42.765625
2855,-34.6,2021-12-17 17:39:42.781250
2856,-33.32,2021-12-17 17:39:42.796875
2857,-32.88,2021-12-17 17:39:42.812500
2858,-33.28,2021-12-17 17:39:42.828125
2859,-35.11,2021-12-17 17:39:42.843750
2860,-39.72,2021-12-17 17:39:42.859375
2861,-48.01,2021-12-17 17:39:42.875000
2862,-59.48,2021-12-17 17:39:42.890625
2863,-71.6,2021-12-17 17:39:42.906250
2864,-80.34,2021-12-17 17:39:42.921875
2865,-81.8,2021-12-17 17:39:42.937500
2866,-73.92,2021-12-17 17:39:42.953125
2867,-57.39,2021-12-17 17:39:42.968750
2868,-35.22,2021-12-17 17:39:42.984375
2869,-12.28,2021-12-17 17:39:43.000000
2870,6.09,2021-12-17 17:39:43.015625
2871,15.04,2021-12-17 17:39:43.031250
2872,10.76,2021-12-17 17:39:43.046875
2873,-9.16,2021-12-17 17:39:43.062500
2874,-45.56,2021-12-17 17:39:43.078125
2875,-97.26,2021-12-17 17:39:43.093750
2876,-160.92,2021-12-17 17:39:43.109375
2877,-226.77,2021-12-17 17:39:43.125000
2878,-282.16,2021-12-17 17:39:43.140625
2879,-314.76,2021-12-17 17:39:43.156250
2880,-317.27,2021-12-17 17:39:43.171875
2881,-290.45,2021-12-17 17:39:43.187500
2882,-241.73,2021-12-17 17:39:43.203125
2883,-180.94,2021-12-17 17:39:43.218750
2884,-116.41,2021-12-17 17:39:43.234375
2885,-53.61,2021-12-17 17:39:43.250000
2886,4.4,2021-12-17 17:39:43.265625
2887,55.17,2021-12-17 17:39:43.281250
2888,96.12,2021-12-17 17:39:43.296875
2889,125.25,2021-12-17 17:39:43.312500
2890,141.82,2021-12-17 17:39:43.328125
2891,147.79,2021-12-17 17:39:43.343750
2892,145.8,2021-12-17 17:39:43.359375
2893,138.18,2021-12-17 17:39:43.375000
2894,126.35,2021-12-17 17:39:43.390625
2895,110.7,2021-12-17 17:39:43.406250
2896,90.19,2021-12-17 17:39:43.421875
2897,62.38,2021-12-17 17:39:43.437500
2898,24.73,2021-12-17 17:39:43.453125
2899,-23.83,2021-12-17 17:39:43.468750
2900,-81.33,2021-12-17 17:39:43.484375
2901,-142.26,2021-12-17 17:39:43.500000
2902,-198.21,2021-12-17 17:39:43.515625
2903,-240.11,2021-12-17 17:39:43.531250
2904,-261.24,2021-12-17 17:39:43.546875
2905,-257.02,2021-12-17 17:39:43.562500
2906,-229.79,2021-12-17 17:39:43.578125
2907,-187.3,2021-12-17 17:39:43.593750
2908,-139.52,2021-12-17 17:39:43.609375
2909,-94.84,2021-12-17 17:39:43.625000
2910,-57.66,2021-12-17 17:39:43.640625
2911,-28.06,2021-12-17 17:39:43.656250
2912,-3.49,2021-12-17 17:39:43.671875
2913,18.99,2021-12-17 17:39:43.687500
2914,41.15,2021-12-17 17:39:43.703125
2915,63.08,2021-12-17 17:39:43.718750
2916,84.49,2021-12-17 17:39:43.734375
2917,105.21,2021-12-17 17:39:43.750000
2918,125.13,2021-12-17 17:39:43.765625
2919,143.35,2021-12-17 17:39:43.781250
2920,157.86,2021-12-17 17:39:43.796875
2921,166.04,2021-12-17 17:39:43.812500
2922,165.98,2021-12-17 17:39:43.828125
2923,157.65,2021-12-17 17:39:43.843750
2924,143.1,2021-12-17 17:39:43.859375
2925,126.0,2021-12-17 17:39:43.875000
2926,110.19,2021-12-17 17:39:43.890625
2927,98.13,2021-12-17 17:39:43.906250
2928,90.21,2021-12-17 17:39:43.921875
2929,85.15,2021-12-17 17:39:43.937500
2930,81.01,2021-12-17 17:39:43.953125
2931,76.42,2021-12-17 17:39:43.968750
2932,71.03,2021-12-17 17:39:43.984375
2933,65.16,2021-12-17 17:39:44.000000
2934,59.39,2021-12-17 17:39:44.015625
2935,54.03,2021-12-17 17:39:44.031250
2936,48.82,2021-12-17 17:39:44.046875
2937,43.18,2021-12-17 17:39:44.062500
2938,36.47,2021-12-17 17:39:44.078125
2939,28.32,2021-12-17 17:39:44.093750
2940,18.92,2021-12-17 17:39:44.109375
2941,8.81,2021-12-17 17:39:44.125000
2942,-1.22,2021-12-17 17:39:44.140625
2943,-10.25,2021-12-17 17:39:44.156250
2944,-17.35,2021-12-17 17:39:44.171875
2945,-21.79,2021-12-17 17:39:44.187500
2946,-23.31,2021-12-17 17:39:44.203125
2947,-22.17,2021-12-17 17:39:44.218750
2948,-19.14,2021-12-17 17:39:44.234375
2949,-15.15,2021-12-17 17:39:44.250000
2950,-11.02,2021-12-17 17:39:44.265625
2951,-7.08,2021-12-17 17:39:44.281250
2952,-3.25,2021-12-17 17:39:44.296875
2953,0.75,2021-12-17 17:39:44.312500
2954,5.06,2021-12-17 17:39:44.328125
2955,9.5,2021-12-17 17:39:44.343750
2956,13.8,2021-12-17 17:39:44.359375
2957,17.94,2021-12-17 17:39:44.375000
2958,22.31,2021-12-17 17:39:44.390625
2959,27.6,2021-12-17 17:39:44.406250
2960,34.46,2021-12-17 17:39:44.421875
2961,43.07,2021-12-17 17:39:44.437500
2962,52.97,2021-12-17 17:39:44.453125
2963,63.25,2021-12-17 17:39:44.468750
2964,72.77,2021-12-17 17:39:44.484375
2965,80.48,2021-12-17 17:39:44.500000
2966,85.52,2021-12-17 17:39:44.515625
2967,87.19,2021-12-17 17:39:44.531250
2968,84.92,2021-12-17 17:39:44.546875
2969,78.42,2021-12-17 17:39:44.562500
2970,67.94,2021-12-17 17:39:44.578125
2971,54.33,2021-12-17 17:39:44.593750
2972,39.18,2021-12-17 17:39:44.609375
2973,24.37,2021-12-17 17:39:44.625000
2974,11.76,2021-12-17 17:39:44.640625
2975,2.66,2021-12-17 17:39:44.656250
2976,-2.48,2021-12-17 17:39:44.671875
2977,-4.07,2021-12-17 17:39:44.687500
2978,-3.14,2021-12-17 17:39:44.703125
2979,-0.92,2021-12-17 17:39:44.718750
2980,1.59,2021-12-17 17:39:44.734375
2981,3.92,2021-12-17 17:39:44.750000
2982,6.1,2021-12-17 17:39:44.765625
2983,8.5,2021-12-17 17:39:44.781250
2984,11.46,2021-12-17 17:39:44.796875
2985,14.96,2021-12-17 17:39:44.812500
2986,18.56,2021-12-17 17:39:44.828125
2987,21.43,2021-12-17 17:39:44.843750
2988,22.67,2021-12-17 17:39:44.859375
2989,21.66,2021-12-17 17:39:44.875000
2990,18.33,2021-12-17 17:39:44.890625
2991,13.17,2021-12-17 17:39:44.906250
2992,7.11,2021-12-17 17:39:44.921875
2993,1.16,2021-12-17 17:39:44.937500
2994,-4.02,2021-12-17 17:39:44.953125
2995,-8.2,2021-12-17 17:39:44.968750
2996,-11.61,2021-12-17 17:39:44.984375
2997,-14.59,2021-12-17 17:39:45.000000
2998,-17.2,2021-12-17 17:39:45.015625
2999,-18.87,2021-12-17 17:39:45.031250
3000,-18.59,2021-12-17 17:39:45.046875
3001,-15.2,2021-12-17 17:39:45.062500
3002,-7.91,2021-12-17 17:39:45.078125
3003,3.22,2021-12-17 17:39:45.093750
3004,17.16,2021-12-17 17:39:45.109375
3005,32.16,2021-12-17 17:39:45.125000
3006,46.11,2021-12-17 17:39:45.140625
3007,57.1,2021-12-17 17:39:45.156250
3008,63.7,2021-12-17 17:39:45.171875
3009,65.22,2021-12-17 17:39:45.187500
3010,61.8,2021-12-17 17:39:45.203125
3011,54.46,2021-12-17 17:39:45.218750
3012,45.03,2021-12-17 17:39:45.234375
3013,35.59,2021-12-17 17:39:45.250000
3014,27.67,2021-12-17 17:39:45.265625
3015,21.51,2021-12-17 17:39:45.281250
3016,15.94,2021-12-17 17:39:45.296875
3017,9.11,2021-12-17 17:39:45.312500
3018,-0.31,2021-12-17 17:39:45.328125
3019,-12.01,2021-12-17 17:39:45.343750
3020,-23.87,2021-12-17 17:39:45.359375
3021,-32.74,2021-12-17 17:39:45.375000
3022,-35.98,2021-12-17 17:39:45.390625
3023,-32.92,2021-12-17 17:39:45.406250
3024,-25.21,2021-12-17 17:39:45.421875
3025,-16.0,2021-12-17 17:39:45.437500
3026,-8.48,2021-12-17 17:39:45.453125
3027,-4.55,2021-12-17 17:39:45.468750
3028,-4.3,2021-12-17 17:39:45.484375
3029,-6.6,2021-12-17 17:39:45.500000
3030,-10.04,2021-12-17 17:39:45.515625
3031,-13.67,2021-12-17 17:39:45.531250
3032,-17.24,2021-12-17 17:39:45.546875
3033,-20.76,2021-12-17 17:39:45.562500
3034,-24.05,2021-12-17 17:39:45.578125
3035,-26.4,2021-12-17 17:39:45.593750
3036,-26.87,2021-12-17 17:39:45.609375
3037,-24.67,2021-12-17 17:39:45.625000
3038,-19.76,2021-12-17 17:39:45.640625
3039,-12.96,2021-12-17 17:39:45.656250
3040,-5.68,2021-12-17 17:39:45.671875
3041,0.61,2021-12-17 17:39:45.687500
3042,5.0,2021-12-17 17:39:45.703125
3043,7.42,2021-12-17 17:39:45.718750
3044,8.56,2021-12-17 17:39:45.734375
3045,9.5,2021-12-17 17:39:45.750000
3046,11.27,2021-12-17 17:39:45.765625
3047,14.44,2021-12-17 17:39:45.781250
3048,18.96,2021-12-17 17:39:45.796875
3049,24.09,2021-12-17 17:39:45.812500
3050,28.76,2021-12-17 17:39:45.828125
3051,31.91,2021-12-17 17:39:45.843750
3052,32.96,2021-12-17 17:39:45.859375
3053,32.07,2021-12-17 17:39:45.875000
3054,30.23,2021-12-17 17:39:45.890625
3055,28.81,2021-12-17 17:39:45.906250
3056,29.13,2021-12-17 17:39:45.921875
3057,31.91,2021-12-17 17:39:45.937500
3058,36.9,2021-12-17 17:39:45.953125
3059,43.07,2021-12-17 17:39:45.968750
3060,49.07,2021-12-17 17:39:45.984375
3061,53.86,2021-12-17 17:39:46.000000
3062,57.13,2021-12-17 17:39:46.015625
3063,59.5,2021-12-17 17:39:46.031250
3064,62.15,2021-12-17 17:39:46.046875
3065,66.24,2021-12-17 17:39:46.062500
3066,72.39,2021-12-17 17:39:46.078125
3067,80.37,2021-12-17 17:39:46.093750
3068,89.26,2021-12-17 17:39:46.109375
3069,97.92,2021-12-17 17:39:46.125000
3070,105.49,2021-12-17 17:39:46.140625
3071,111.77,2021-12-17 17:39:46.156250
3072,117.28,2021-12-17 17:39:46.171875
3073,122.96,2021-12-17 17:39:46.187500
3074,129.71,2021-12-17 17:39:46.203125
3075,137.94,2021-12-17 17:39:46.218750
3076,147.51,2021-12-17 17:39:46.234375
3077,157.77,2021-12-17 17:39:46.250000
3078,167.85,2021-12-17 17:39:46.265625
3079,176.81,2021-12-17 17:39:46.281250
3080,183.58,2021-12-17 17:39:46.296875
3081,186.9,2021-12-17 17:39:46.312500
3082,185.55,2021-12-17 17:39:46.328125
3083,178.87,2021-12-17 17:39:46.343750
3084,167.24,2021-12-17 17:39:46.359375
3085,152.06,2021-12-17 17:39:46.375000
3086,135.05,2021-12-17 17:39:46.390625
3087,117.06,2021-12-17 17:39:46.406250
3088,97.26,2021-12-17 17:39:46.421875
3089,73.5,2021-12-17 17:39:46.437500
3090,43.35,2021-12-17 17:39:46.453125
3091,5.88,2021-12-17 17:39:46.468750
3092,-37.57,2021-12-17 17:39:46.484375
3093,-83.71,2021-12-17 17:39:46.500000
3094,-128.85,2021-12-17 17:39:46.515625
3095,-170.66,2021-12-17 17:39:46.531250
3096,-209.15,2021-12-17 17:39:46.546875
3097,-246.44,2021-12-17 17:39:46.562500
3098,-285.26,2021-12-17 17:39:46.578125
3099,-327.46,2021-12-17 17:39:46.593750
3100,-372.59,2021-12-17 17:39:46.609375
3101,-417.5,2021-12-17 17:39:46.625000
3102,-456.81,2021-12-17 17:39:46.640625
3103,-484.38,2021-12-17 17:39:46.656250
3104,-495.38,2021-12-17 17:39:46.671875
3105,-488.38,2021-12-17 17:39:46.687500
3106,-466.43,2021-12-17 17:39:46.703125
3107,-436.28,2021-12-17 17:39:46.718750
3108,-405.98,2021-12-17 17:39:46.734375
3109,-381.96,2021-12-17 17:39:46.750000
3110,-367.0,2021-12-17 17:39:46.765625
3111,-359.95,2021-12-17 17:39:46.781250
3112,-357.12,2021-12-17 17:39:46.796875
3113,-354.34,2021-12-17 17:39:46.812500
3114,-348.33,2021-12-17 17:39:46.828125
3115,-337.2,2021-12-17 17:39:46.843750
3116,-319.87,2021-12-17 17:39:46.859375
3117,-295.5,2021-12-17 17:39:46.875000
3118,-263.47,2021-12-17 17:39:46.890625
3119,-223.72,2021-12-17 17:39:46.906250
3120,-177.19,2021-12-17 17:39:46.921875
3121,-125.65,2021-12-17 17:39:46.937500
3122,-71.42,2021-12-17 17:39:46.953125
3123,-17.0,2021-12-17 17:39:46.968750
3124,34.95,2021-12-17 17:39:46.984375
3125,81.5,2021-12-17 17:39:47.000000
3126,119.72,2021-12-17 17:39:47.015625
3127,147.47,2021-12-17 17:39:47.031250
3128,164.34,2021-12-17 17:39:47.046875
3129,172.13,2021-12-17 17:39:47.062500
3130,174.34,2021-12-17 17:39:47.078125
3131,174.96,2021-12-17 17:39:47.093750
3132,177.19,2021-12-17 17:39:47.109375
3133,182.72,2021-12-17 17:39:47.125000
3134,191.72,2021-12-17 17:39:47.140625
3135,203.37,2021-12-17 17:39:47.156250
