1582125725.00
64.000000
-0.00
-0.00
-0.00
-0.00
-0.00
-0.00
-0.00
-0.00
-0.00
-0.00
0.00
0.01
0.01
-0.00
-0.03
-0.05
-0.05
0.00
0.13
0.36
0.66
1.01
1.37
1.72
2.06
2.40
2.79
3.24
3.80
4.42
5.06
5.66
6.20
6.68
7.15
7.68
8.31
9.14
10.09
11.04
11.88
12.56
13.14
13.76
14.65
15.96
17.91
20.32
22.90
25.38
27.58
29.57
31.68
34.32
37.81
42.54
48.15
54.10
59.83
64.97
69.58
74.14
79.34
85.71
93.76
103.00
112.62
121.73
129.77
136.75
143.30
150.75
157.77
166.64
177.95
191.79
206.97
220.57
228.25
225.36
208.53
176.87
132.76
80.05
23.07
-34.94
-92.44
-149.16
-205.23
-260.37
-313.74
-363.87
-409.83
-450.91
-486.50
-515.74
-537.23
-549.22
-549.96
-538.37
-514.21
-478.67
-433.88
-382.45
-327.02
-269.84
-212.63
-156.66
-102.95
-52.37
-5.90
35.58
71.43
101.35
125.50
144.38
158.69
169.15
176.37
180.75
182.57
182.07
179.51
175.23
169.65
163.18
156.15
148.81
141.30
133.69
126.02
118.33
110.69
103.16
95.80
88.68
81.83
75.25
68.95
62.95
57.25
51.86
46.78
42.03
37.59
33.46
29.63
26.09
22.84
19.86
17.16
14.73
12.55
10.62
8.93
7.45
6.18
5.09
4.17
3.40
2.77
2.26
1.85
1.54
1.30
1.14
1.04
0.98
0.96
0.97
1.02
1.07
1.15
1.24
1.34
1.46
1.58
1.73
1.88
2.06
2.25
2.46
2.69
2.93
3.20
3.48
3.79
4.11
4.47
4.85
5.27
5.72
6.22
6.77
7.37
8.02
8.73
9.50
10.34
11.28
12.28
13.36
14.49
15.65
16.80
17.87
18.82
19.56
20.04
20.24
20.18
19.89
19.52
19.19
19.08
19.35
20.13
21.47
23.35
25.64
28.09
30.33
31.98
32.65
31.97
29.66
25.53
19.61
12.12
3.43
-5.97
-15.44
-24.41
-32.34
-38.91
-43.96
-47.60
-50.06
-51.71
-52.89
-53.90
-54.90
-55.96
-57.04
-58.02
-58.68
-58.75
-57.89
-55.77
-52.08
-46.66
-39.62
-31.35
-22.61
-14.37
-7.54
-2.79
-0.36
-0.02
-1.15
-3.10
-5.40
-7.99
-11.18
-15.35
-20.75
-27.26
-34.22
-40.63
-45.53
-48.52
-50.06
-51.51
-54.59
-60.87
-70.86
-83.33
-95.24
-102.50
-101.36
-90.00
-69.17
-41.77
-12.08
15.45
37.13
50.59
55.25
52.77
46.97
41.67
41.09
47.27
58.68
70.91
79.02
80.41
76.38
71.40
70.55
77.24
91.50
110.49
130.03
145.70
153.24
148.73
129.30
94.28
46.10
-10.36
-69.18
-125.12
-174.37
-214.25
-242.42
-256.46
-254.44
-235.94
-203.02
-159.75
-110.70
-59.41
-7.98
42.04
88.18
126.42
152.26
162.89
159.24
146.10
129.98
116.06
105.92
97.39
86.63
71.30
52.65
35.23
24.80
25.14
35.85
52.03
65.83
68.77
53.90
17.34
-40.75
-115.76
-199.03
-279.27
-345.27
-388.88
-407.16
-402.79
-382.28
-353.17
-321.47
-290.50
-261.31
-234.08
-209.12
-187.13
-168.71
-153.97
-142.30
-132.81
-124.77
-117.69
-111.09
-104.27
-96.04
-84.90
-69.49
-48.88
-22.97
7.71
42.18
79.32
118.24
158.54
200.34
243.94
289.03
333.86
374.95
407.66
427.66
432.54
422.74
401.25
372.19
339.35
305.17
270.96
237.72
207.10
181.26
162.08
150.04
143.92
141.30
139.46
136.30
130.66
122.31
111.52
98.58
83.51
66.16
46.46
24.35
0.15
-25.32
-49.70
-69.12
-78.44
-72.57
-48.14
-4.75
53.25
117.14
175.71
220.10
246.08
254.55
249.36
234.38
212.40
183.20
145.66
100.15
54.08
19.84
9.61
28.24
69.66
120.06
161.02
176.61
157.85
109.68
47.09
-11.07
-49.04
-57.34
-30.96
28.16
111.70
204.22
292.08
364.54
415.84
444.68
438.14
395.01
325.94
265.05
222.82
199.85
187.73
180.08
170.19
152.02
124.24
88.05
46.08
-1.30
-51.12
-100.57
-148.14
-194.78
-242.47
-291.26
-341.39
-393.53
-449.71
-507.08
-558.84
-596.67
-615.82
-618.19
-611.23
-605.88
-610.64
-627.51
-647.88
-657.47
-643.63
-602.10
-537.75
-460.02
-377.53
-294.48
-212.00
-130.46
-53.70
10.25
52.40
67.66
58.65
34.84
8.10
-12.89
-25.22
-31.69
-37.44
-46.08
-57.41
-68.11
-74.18
-73.50
-66.77
-56.44
-44.90
-33.26
-21.29
-8.29
5.68
19.36
30.92
38.98
43.77
47.14
51.80
60.16
72.99
89.08
105.86
120.38
130.53
135.80
137.25
137.03
137.24
138.88
141.21
142.02
138.58
129.22
114.48
97.16
81.43
70.93
67.13
68.61
71.77
72.59
68.62
60.13
49.78
41.12
36.84
37.54
41.77
47.09
51.09
52.23
49.97
44.47
36.81
29.47
26.87
34.99
59.33
101.95
159.18
221.75
277.58
316.26
332.64
327.98
308.11
280.03
248.96
217.33
185.68
154.13
123.26
93.58
64.62
34.44
0.18
-40.55
-88.25
-140.88
-194.26
-243.05
-282.07
-307.05
-315.50
-307.47
-286.14
-257.67
-228.88
-204.92
-187.68
-176.10
-167.86
-161.42
-157.20
-156.90
-162.44
-173.18
-185.76
-196.05
-202.18
-206.10
-212.58
-226.42
-248.94
-277.32
-302.83
-313.68
-299.97
-258.88
-197.02
-129.00
-72.51
-41.98
-44.70
-76.41
-123.21
-167.63
-195.82
-202.11
-189.24
-165.55
-129.11
-84.23
-38.73
-0.10
27.96
45.11
52.15
50.12
40.84
26.57
11.41
0.28
-2.70
4.34
20.40
42.41
67.67
95.62
126.41
160.73
199.95
245.32
297.07
353.96
413.92
475.53
537.60
598.19
652.73
694.25
715.37
710.90
679.75
625.66
556.79
482.23
409.65
343.34
284.10
230.68
181.18
133.14
83.63
30.53
-28.57
-94.95
-168.50
-248.38
-333.36
-417.76
-492.31
-548.75
-583.72
-601.67
-609.19
-609.58
-600.76
-577.05
-533.18
-469.05
-397.40
-325.82
-262.35
-212.13
-175.91
-150.47
-131.08
-113.78
-97.19
-82.13
-68.88
-59.32
-53.79
-51.57
-51.59
-53.44
-57.31
-63.97
-73.98
-86.27
-99.73
-112.40
-122.36
-127.30
-125.98
-118.44
-105.84
-90.06
-72.43
-54.49
-37.20
-21.19
-4.64
14.32
36.93
63.28
92.12
121.70
149.83
174.64
194.69
212.99
233.26
258.77
291.03
329.33
371.45
414.47
455.69
493.22
531.29
575.27
629.86
697.01
775.35
861.46
951.91
1044.30
1105.11
1106.96
1032.45
882.45
676.42
443.41
211.95
4.21
-166.43
-295.86
-383.14
-432.76
-452.34
-450.09
-433.55
-409.05
-381.97
-357.59
-341.10
-332.41
-329.62
-329.50
-328.69
-325.36
-319.75
-313.82
-310.76
-314.13
-324.35
-337.63
-351.70
-364.84
-375.25
-380.02
-374.73
-355.17
-319.85
-270.66
-213.92
-158.65
-112.55
-79.17
-57.02
-41.16
-25.75
-7.17
16.06
43.51
73.06
101.76
125.75
139.24
138.89
125.04
101.79
75.55
52.62
36.69
28.54
26.79
29.38
34.83
41.74
48.46
53.06
53.90
50.37
43.63
36.15
30.57
28.38
29.05
29.81
27.37
18.95
2.95
-20.52
-49.31
-79.14
-103.34
-116.10
-114.03
-97.65
-71.50
-42.63
-17.88
-1.38
6.80
9.57
10.41
12.12
16.06
23.16
34.04
48.82
67.16
88.64
111.27
131.73
145.93
149.92
141.07
119.26
86.85
49.71
16.51
-5.79
-14.76
-13.63
-9.37
-9.30
-17.86
-36.18
-61.05
-85.97
-106.20
-120.26
-129.52
-136.32
-142.45
-148.50
-156.42
-168.28
-185.23
-209.74
-243.62
-286.45
-333.84
-378.53
-402.65
-397.12
-372.87
-339.25
-305.82
-275.89
-252.34
-234.58
-219.46
-203.62
-187.05
-171.31
-156.71
-144.11
-133.82
-126.04
-120.17
-115.65
-112.04
-110.43
-111.13
-111.92
-110.49
-104.74
-93.78
-77.54
-57.16
-34.80
-13.99
2.40
13.48
19.07
19.72
16.18
9.67
1.45
-7.29
-15.95
-23.65
-28.90
-30.51
-27.61
-19.97
-7.72
8.56
27.93
49.00
70.82
92.65
113.71
133.16
150.20
164.21
174.90
182.20
186.42
189.58
193.97
201.69
214.14
231.72
253.88
279.24
305.87
331.72
357.71
385.03
414.13
444.29
473.74
500.45
522.91
540.40
553.00
565.58
582.93
607.78
640.09
677.79
718.50
760.69
803.48
845.54
888.95
932.95
972.39
999.15
1005.75
989.07
951.84
901.20
808.79
661.03
460.56
227.37
-8.51
-219.52
-389.49
-514.92
-601.55
-654.15
-681.67
-690.28
-684.21
-667.74
-645.87
-623.78
-606.14
-596.82
-597.95
-606.59
-618.50
-630.59
-641.41
-650.05
-654.60
-651.72
-637.69
-610.27
-568.12
-512.65
-448.40
-381.40
-316.96
-258.40
-207.20
-164.09
-129.89
-104.40
-86.18
-72.91
-62.00
-51.49
-40.90
-31.61
-26.26
-27.40
-35.87
-50.29
-67.94
-85.88
-102.13
-116.18
-128.94
-142.41
-159.19
-181.91
-212.16
-249.39
-290.19
-328.34
-356.30
-367.64
-359.35
-333.10
-294.54
-251.21
-209.81
-174.50
-146.46
-124.63
-107.03
-91.54
-76.24
-59.31
-39.11
-14.32
15.53
49.85
87.46
126.84
166.86
207.28
248.97
293.62
342.75
396.10
450.19
498.06
530.42
538.65
517.90
469.49
400.98
323.94
250.32
188.97
144.02
115.40
101.05
98.77
106.99
123.88
146.02
167.90
183.05
186.40
176.35
155.62
129.84
104.71
83.46
65.82
49.10
30.42
8.60
-15.22
-38.41
-58.26
-73.18
-83.01
-88.65
-91.24
-91.71
-90.58
-88.22
-85.09
-81.79
-78.89
-76.58
-74.54
-71.98
-67.90
-61.57
-52.77
-41.95
-30.07
-18.32
-7.84
0.59
6.63
10.40
12.36
13.11
13.20
12.91
12.25
11.00
8.95
6.14
3.03
0.29
-1.35
-1.48
-0.15
2.10
4.53
6.36
7.07
6.46
4.59
1.81
-1.39
-4.42
-6.68
-7.70
-7.25
-5.38
-2.46
1.00
4.39
7.23
9.08
9.69
8.97
7.00
4.08
0.64
-2.80
-5.77
-7.96
-9.24
-9.60
-9.11
-7.99
-6.62
-5.70
-6.15
-8.93
-14.67
-23.30
-33.91
-44.84
-54.24
-60.62
-63.35
-62.77
-59.94
-56.15
-52.45
-49.40
-47.03
-45.07
-43.18
-41.13
-38.86
-36.40
-33.90
-31.53
-29.46
-27.79
-26.55
-25.58
-24.66
-23.50
-21.86
-19.62
-16.84
-13.74
-10.72
-8.28
-6.89
-6.85
-8.14
-10.38
-13.01
-15.53
-17.75
-19.85
-22.18
-24.91
-27.85
-30.45
-31.95
-31.78
-29.77
-26.20
-21.66
-16.82
-12.23
-8.25
-5.06
-2.71
-1.08
0.01
0.87
1.73
2.77
4.07
5.57
7.10
8.37
9.01
8.63
7.10
4.62
1.78
-0.60
-1.82
-1.55
0.07
2.60
5.57
8.80
12.39
16.60
21.58
27.19
32.99
38.46
43.25
47.30
50.87
54.35
58.00
61.88
65.78
69.42
72.59
75.25
77.47
79.30
80.57
80.89
79.77
76.81
71.83
65.02
56.79
47.67
38.19
28.77
19.76
11.39
3.83
-2.84
-8.69
-13.94
-19.06
-24.60
-31.07
-38.67
-47.05
-55.30
-62.19
-66.61
-67.99
-66.62
-63.55
-60.29
-58.35
-58.79
-62.11
-68.12
-76.13
-85.01
-93.38
-99.88
-103.39
-103.31
-99.68
-93.13
-84.62
-75.19
-65.58
-56.21
-47.17
-38.40
-29.85
-21.61
-13.82
-6.62
-0.05
5.98
11.67
17.29
23.06
29.15
35.61
42.29
48.88
54.92
59.88
63.33
65.01
64.84
62.93
59.50
54.92
49.69
44.44
39.87
36.50
34.51
33.70
33.49
33.17
32.12
30.01
26.88
23.18
19.53
16.53
14.47
13.15
11.88
9.69
5.82
-0.03
-7.44
-15.54
-23.26
-29.76
-34.56
-37.45
-38.37
-37.24
-34.07
-29.16
-23.28
-17.56
-13.32
-11.58
-12.64
-15.94
-20.14
-23.58
-24.81
-23.07
-18.54
-12.35
-6.17
-1.72
-0.30
-2.50
-8.14
-16.65
-27.39
-40.02
-54.60
-71.47
-91.09
-113.87
-140.05
-169.42
-200.88
-231.96
-258.52
-275.29
-277.03
-260.09
-223.70
-170.04
-103.26
-27.89
52.36
134.53
215.49
290.83
354.68
401.20
426.99
433.12
425.27
411.66
399.73
393.22
391.29
389.87
384.43
372.38
354.07
331.77
307.56
281.51
251.25
213.06
163.88
103.10
33.36
-40.21
-111.76
-176.54
-232.32
-279.51
-320.38
-357.90
-394.79
-433.16
-474.28
-518.04
-562.21
-602.14
-631.55
-644.52
-637.84
-612.50
-573.37
-527.06
-479.37
-433.45
-389.77
-347.51
-306.14
-265.94
-227.68
-191.58
-156.61
-120.87
-82.34
-39.76
7.03
57.16
108.89
159.76
206.92
247.50
279.26
301.14
313.51
317.82
316.06
310.04
301.27
290.97
280.40
270.77
262.90
256.73
251.17
244.46
234.97
222.01
206.11
188.75
171.54
155.70
141.60
128.94
117.25
106.19
95.83
86.43
78.27
71.37
65.58
60.77
56.99
54.65
54.23
56.11
60.29
66.39
73.83
82.19
91.27
101.01
111.18
121.26
130.46
138.14
144.14
148.97
153.63
159.11
165.76
173.07
179.96
185.34
188.56
189.48
187.98
183.51
174.97
161.14
141.46
116.48
87.55
56.20
23.43
-10.42
-45.27
-80.86
-116.79
-153.23
-191.19
-231.83
-274.78
-317.11
-353.61
-378.98
-390.16
-387.35
-373.11
-350.51
-321.96
-289.15
-254.07
-219.49
-188.21
-161.37
-137.34
-112.46
-83.65
-51.22
-19.91
2.80
10.38
0.85
-22.03
-50.27
-74.93
-89.56
-92.24
-85.49
-74.39
-64.08
-57.89
-56.74
-59.65
-64.86
-70.21
-73.08
-70.03
-57.20
-31.37
8.80
61.83
123.48
187.53
247.04
295.58
328.49
343.79
342.73
329.43
309.51
288.41
269.97
255.95
246.68
242.05
241.91
245.98
253.19
261.48
268.28
271.59
270.89
267.24
262.68
259.16
257.89
259.06
262.05
265.80
269.02
270.16
267.57
259.72
245.70
225.43
199.68
169.56
136.06
99.72
60.82
19.83
-22.20
-63.54
-102.33
-137.19
-167.78
-194.93
-220.39
-246.47
-275.32
-308.06
-343.76
-378.61
-406.16
-418.99
-411.36
-381.82
-334.25
-276.70
-218.70
-168.14
-129.44
-103.49
-89.00
-84.17
-87.45
-97.44
-112.23
-129.06
-144.67
-156.15
-161.76
-161.19
-155.33
-145.68
-133.80
-120.94
-107.87
-94.88
-81.89
-68.77
-55.54
-42.61
-30.78
-20.97
-13.88
-9.60
-7.49
-6.45
-5.50
-4.28
-3.27
-3.49
-5.80
-10.31
-16.27
-22.37
-27.36
-30.61
-32.21
-32.63
-32.30
-31.33
-29.57
-26.99
-23.98
-21.36
-20.01
-20.41
-22.29
-24.60
-25.88
-24.95
-21.47
-16.27
-11.06
-7.76
-7.69
-10.97
-16.49
-22.26
-26.04
-25.79
-19.92
-7.42
11.84
36.76
64.70
91.88
114.46
129.81
137.45
138.91
136.54
132.19
126.38
118.43
107.44
93.17
76.47
59.00
42.73
29.61
21.46
19.71
24.59
34.47
45.77
54.22
57.03
54.56
50.56
50.24
57.43
72.33
91.28
108.52
118.96
120.25
113.24
100.83
86.19
71.37
56.81
41.84
25.48
7.13
-13.07
-34.47
-56.57
-79.41
-103.73
-130.36
-159.16
-188.21
-213.94
-232.26
-240.27
-237.64
-226.67
-211.19
-194.78
-179.60
-166.13
-154.01
-143.19
-134.50
-129.34
-128.89
-133.28
-141.53
-152.24
-164.46
-178.04
-193.08
-208.61
-221.87
-228.32
-223.07
-202.93
-167.74
-120.16
-64.20
-3.59
58.97
121.07
179.14
227.83
260.86
273.54
265.16
239.89
205.35
169.81
139.25
116.02
99.21
86.16
74.02
60.68
45.05
27.05
7.53
-11.51
-27.18
-36.34
-36.62
-27.42
-10.97
7.70
21.88
25.40
15.26
-6.60
-33.39
-55.88
-66.11
-60.48
-40.67
-12.09
19.10
48.62
74.71
97.08
114.79
125.15
123.86
106.70
71.25
17.86
-50.20
-127.06
-204.92
-274.87
-328.50
-359.81
-367.15
-353.90
-327.42
-296.82
-270.11
-252.05
-243.18
-240.32
-237.95
-230.15
-212.13
-181.18
-137.03
-81.65
-18.67
47.20
110.72
166.74
211.11
241.92
260.60
271.96
282.67
298.48
321.47
348.64
373.03
386.85
384.83
366.14
334.14
294.36
252.01
210.50
171.40
135.60
104.42
79.88
63.74
55.94
53.64
51.60
44.15
27.68
2.40
-27.61
-56.05
-76.75
-85.33
-79.53
-58.58
-22.63
27.08
87.34
152.23
213.68
263.44
295.78
309.46
307.80
297.00
283.44
271.42
262.37
255.45
249.11
242.38
235.37
228.87
223.42
218.46
212.09
201.61
184.57
159.82
128.23
92.58
56.81
24.88
-0.44
-18.25
-29.95
-38.59
-48.27
-63.28
-87.22
-121.86
-165.83
-213.84
-257.55
-288.30
-300.99
-297.40
-286.86
-283.42
-300.36
-343.93
-410.07
-485.13
-550.90
-591.23
-597.18
-568.58
-511.74
-435.72
-349.31
-260.20
-175.49
-101.42
-42.19
1.88
35.35
66.11
101.50
144.24
190.30
230.72
256.86
265.34
259.89
249.01
240.67
237.93
238.00
234.72
222.66
200.90
173.59
148.06
131.32
127.03
134.30
148.75
164.37
174.00
171.84
154.32
121.25
76.31
26.18
-20.82
-57.12
-78.08
-85.90
-86.96
-89.47
-100.19
-122.28
-155.00
-194.38
-234.23
-267.47
-291.44
-305.27
-309.68
-306.33
-298.01
-289.36
-286.35
-294.43
-316.33
-355.82
-412.93
-484.18
-563.28
-643.15
-718.53
-786.91
-847.65
-868.49
-824.80
-706.25
-525.84
-314.83
-106.72
75.82
223.92
338.49
424.99
484.62
517.91
526.34
514.50
490.08
461.59
435.86
416.83
405.72
397.94
388.01
371.96
349.26
322.70
296.61
274.68
258.95
249.89
244.38
238.80
230.54
219.05
205.68
192.54
181.27
172.63
165.90
158.82
149.06
135.12
116.87
95.42
72.60
50.12
29.10
10.19
-6.61
-21.38
-33.91
-43.58
-49.51
-50.89
-47.39
-39.71
-29.03
-16.61
-3.53
9.62
22.79
36.21
50.17
64.53
78.09
89.36
96.88
99.72
97.75
91.56
81.95
69.00
54.67
38.97
21.38
1.50
-20.55
-44.05
-68.08
-91.79
-114.20
-133.75
-148.61
-156.81
-157.53
-152.15
-143.85
-135.81
-128.70
-119.13
-100.81
-68.58
-22.37
30.39
76.31
101.05
95.18
58.07
-2.29
-72.76
-140.00
-193.69
-227.90
-240.86
-234.13
-212.08
-181.45
-150.08
-124.86
-109.36
-102.44
-98.90
-92.27
-77.89
-55.06
-26.88
1.77
26.92
47.34
65.01
83.75
106.99
135.52
166.51
194.06
211.23
212.57
196.28
165.20
125.34
83.53
44.89
11.53
-17.07
-42.72
-66.74
-88.22
-103.63
-108.04
-97.67
-72.05
-34.83
7.54
48.39
83.40
112.18
137.77
164.10
193.39
224.68
252.50
269.07
269.40
252.04
218.92
173.44
120.57
65.83
13.82
-33.01
-74.04
-109.57
-139.27
-160.68
-169.35
-161.93
-136.19
-91.63
-29.74
45.56
127.15
204.56
265.63
299.48
296.58
254.18
177.49
77.72
-31.87
-139.74
-237.59
-319.84
-382.61
-427.82
-459.24
-481.23
-497.77
-511.86
-525.30
-538.20
-548.91
-530.63
-467.80
-362.03
-232.36
-102.92
9.95
100.44
169.62
220.95
258.67
282.72
293.37
292.92
285.29
274.82
264.18
254.93
245.70
235.59
221.68
203.02
181.25
159.23
139.80
123.68
109.26
93.45
73.25
44.15
2.66
-47.57
-100.74
-148.52
-182.17
-194.93
-184.58
-154.32
-113.52
-73.37
-42.52
-25.14
-19.98
-22.84
-29.41
-37.24
-45.64
-55.31
-66.17
-76.56
-84.61
-88.89
-89.43
-87.37
-85.37
-84.45
-84.81
-85.67
-85.66
-84.00
-80.62
-76.54
-72.93
-71.17
-71.98
-75.40
-80.57
-86.19
-91.32
-95.54
-99.24
-102.73
-106.60
-111.14
-116.28
-121.32
-125.14
-126.40
-123.43
-118.53
-112.54
-106.11
-99.56
-93.04
-86.53
-79.88
-73.02
-66.04
-59.26
-52.55
-45.98
-39.69
-33.78
-28.33
-23.34
-18.81
-14.75
-11.32
-8.26
-5.52
-3.04
-0.78
1.44
3.85
6.72
10.19
14.17
18.61
23.22
27.66
31.73
35.54
39.45
43.97
49.51
56.13
63.68
71.66
79.52
87.01
94.28
101.94
110.74
121.25
133.49
146.95
160.73
173.89
185.83
196.57
206.64
217.00
228.83
243.36
261.47
283.14
306.77
329.00
345.24
351.11
344.06
324.50
295.67
262.31
228.86
198.08
170.78
146.54
124.83
105.68
89.53
76.61
66.28
57.03
46.92
34.35
18.52
-0.58
-22.36
-45.96
-70.27
-93.82
-114.72
-130.99
-141.18
-145.06
-143.91
-140.08
-135.98
-133.09
-131.33
-129.22
-124.63
-115.67
-101.16
-80.73
-54.64
-23.73
10.57
45.67
77.93
103.44
119.44
125.44
123.40
116.76
108.62
100.63
92.04
80.45
63.30
39.48
10.13
-21.83
-52.98
-80.66
-102.92
-119.23
-129.90
-135.61
-136.82
-133.90
-127.50
-118.94
-110.26
-101.65
-93.15
-85.18
-78.66
-74.70
-73.73
-74.84
-75.58
-72.79
-59.49
-31.49
10.03
58.47
104.98
143.09
171.57
194.21
216.44
249.09
297.64
359.65
426.47
488.23
539.22
579.72
614.12
646.67
689.19
749.54
828.76
920.25
1011.94
1089.98
1142.28
1161.01
1097.20
932.90
684.12
397.07
124.01
-102.13
-275.14
-406.40
-503.43
-583.14
-646.44
-690.03
-712.66
-718.26
-713.92
-705.84
-695.33
-681.39
-663.92
-636.40
-595.48
-543.32
-487.02
-435.21
-393.89
-364.29
-344.03
-330.18
-315.17
-294.11
-266.39
-235.32
-205.71
-181.03
-162.18
-148.18
-137.76
-127.21
-114.11
-98.12
-80.85
-64.66
-51.32
-41.35
-34.35
-29.68
-25.54
-20.58
-14.30
-7.14
-0.08
5.91
10.27
12.90
13.96
13.99
13.50
12.73
11.62
9.89
7.30
3.87
-0.07
-4.00
-7.49
-10.34
-12.63
-14.47
-15.82
-16.32
-15.40
-12.67
-8.19
-2.64
2.90
7.42
10.30
11.49
11.38
10.47
9.12
7.45
5.40
2.85
-0.20
-3.62
-7.18
-10.54
-13.40
-15.53
-16.80
-17.24
-16.96
-16.09
-14.63
-12.48
-9.55
-5.88
-1.78
2.16
5.35
7.35
8.08
7.80
7.02
6.22
5.70
5.50
5.50
5.48
5.30
4.89
4.25
3.36
2.20
0.73
-1.04
-2.91
-4.52
-5.43
-5.28
-3.94
-1.69
0.91
3.19
4.61
4.98
4.48
3.57
2.84
2.72
3.43
4.92
6.94
9.17
11.29
13.01
14.11
14.47
14.10
13.17
11.99
10.89
10.12
9.74
9.55
9.29
8.72
7.75
6.47
5.06
3.75
2.74
2.19
2.13
2.43
2.83
2.96
2.53
1.44
-0.12
-1.78
-3.13
-3.94
-4.24
-4.23
-4.18
-4.28
-4.52
-4.86
-5.26
-5.79
-6.60
-7.78
-9.26
-10.75
-11.78
-11.93
-11.00
-9.11
-6.65
-4.11
-1.85
-0.03
1.38
2.51
3.45
4.22
4.79
5.09
5.09
4.80
4.34
3.83
3.42
3.22
3.17
3.10
2.75
1.88
0.41
-1.49
-3.46
-5.07
-6.10
-6.51
-6.51
-6.40
-6.35
-6.35
-6.26
-5.89
-5.23
-4.42
-3.75
-3.45
-3.65
-4.23
-4.95
-5.47
-5.52
-4.88
-3.50
-1.43
1.19
4.09
6.94
9.39
11.11
11.88
11.67
10.61
8.95
6.99
4.93
2.92
0.95
-0.93
-2.65
-4.11
-5.22
-6.05
-6.78
-7.78
-9.33
-11.65
-14.75
-18.46
-22.50
-26.52
-30.17
-33.09
-35.01
-35.77
-35.44
-34.38
-33.09
-32.09
-31.75
-32.10
-32.87
-33.63
-33.85
-33.11
-31.19
-28.08
-23.97
-19.21
-14.24
-9.50
-5.29
-1.80
0.93
2.95
4.36
5.30
5.90
6.29
6.56
6.75
6.84
6.83
6.77
6.79
7.01
7.47
8.10
8.67
8.99
8.92
8.48
7.80
7.01
6.16
5.19
4.06
2.77
1.43
0.20
-0.83
-1.70
-2.63
-3.84
-5.37
-7.05
-8.45
-9.09
-8.66
-7.18
-4.93
-2.32
0.30
2.74
5.00
7.06
8.86
10.23
11.01
11.14
10.70
9.90
9.00
8.21
7.58
7.02
6.40
5.62
4.70
3.79
3.07
2.70
2.66
2.77
2.73
2.28
1.34
0.02
-1.45
-2.83
-4.01
-5.02
-5.99
-7.07
-8.33
-9.73
-11.13
-12.36
-13.19
-13.40
-12.86
-11.56
-9.62
-7.28
-4.86
-2.61
-0.69
0.82
1.95
2.72
3.19
3.43
3.53
3.60
3.76
4.06
4.51
5.03
5.47
5.72
5.70
5.46
5.12
4.82
4.60
4.43
4.18
3.72
2.97
1.95
0.71
-0.69
-2.24
-3.88
-5.54
-7.08
-8.41
-9.49
-10.45
-11.41
-12.47
-13.54
-14.33
-14.55
-13.95
-12.55
-10.57
-8.35
-6.17
-4.20
-2.43
-0.84
0.56
1.65
2.30
2.45
2.22
1.90
1.85
2.37
3.49
5.04
6.67
8.05
9.00
9.56
9.86
10.04
10.19
10.25
10.14
9.73
8.90
7.53
5.52
2.90
-0.16
-3.30
-6.12
-8.32
-9.82
-10.84
-11.74
-12.86
-14.34
-16.06
-17.74
-18.96
-19.37
-18.73
-16.98
-14.24
-10.84
-7.24
-3.90
-1.19
0.66
1.59
1.64
0.93
-0.37
-1.98
-3.61
-4.96
-5.83
-6.19
-6.15
-5.90
-5.66
-5.55
-5.64
-5.96
-6.50
-7.23
-8.07
-8.85
-9.33
-9.26
-8.49
-7.04
-5.13
-3.11
-1.42
-0.35
-0.06
-0.41
-1.04
-1.50
-1.40
-0.58
0.85
2.54
4.07
5.16
5.77
6.01
6.05
5.98
5.73
5.13
4.11
2.76
1.32
0.08
-0.78
-1.31
-1.67
-2.07
-2.56
-3.02
-3.25
-3.08
-2.45
-1.55
-0.61
0.12
0.55
0.69
0.62
0.38
-0.05
-0.77
-1.88
-3.42
-5.33
-7.46
-9.53
-11.17
-11.99
-11.68
-10.13
-7.56
-4.40
-1.23
1.52
3.60
5.03
5.94
6.47
6.68
6.60
6.25
5.75
5.20
4.73
4.36
4.03
3.69
3.32
3.00
2.77
2.59
2.31
1.72
0.70
-0.72
-2.32
-3.80
-4.96
-5.83
-6.64
-7.71
-9.32
-11.51
-14.17
-17.01
-19.72
-21.92
-23.30
-23.57
-22.55
-20.26
-16.94
-13.05
-9.13
-5.62
-2.76
-0.59
1.02
2.27
3.29
4.16
4.88
5.38
5.58
5.45
5.04
4.50
4.06
3.90
4.04
4.33
4.52
4.45
4.13
3.79
3.72
4.04
4.67
5.30
5.54
5.11
3.90
2.00
-0.41
-3.07
-5.65
-7.79
-9.07
-9.15
-7.88
-5.41
-2.10
1.58
5.23
8.56
11.47
13.90
15.82
17.15
17.83
17.81
17.15
15.99
14.53
12.98
11.53
10.30
9.33
8.57
7.87
7.10
6.16
5.00
3.65
2.20
0.74
-0.63
-1.85
-2.93
-3.92
-4.94
-6.13
-7.64
-9.52
-11.68
-13.85
-15.65
-16.69
-16.71
-15.56
-13.34
-10.27
-6.69
-2.94
0.69
4.00
6.88
9.26
11.01
11.97
11.94
10.90
8.99
6.59
4.15
2.06
0.52
-0.52
-1.23
-1.80
-2.37
-3.00
-3.72
-4.57
-5.55
-6.61
-7.60
-8.29
-8.41
-7.84
-6.62
-5.02
-3.46
-2.33
-1.87
-2.00
-2.36
-2.45
-1.85
-0.35
1.87
4.42
6.76
8.46
9.26
9.12
8.16
6.60
4.67
2.61
0.62
-1.15
-2.67
-3.96
-5.08
-6.10
-7.06
-7.96
-8.82
-9.65
-10.46
-11.27
-12.09
-12.99
-14.04
-15.33
-16.94
-18.90
-21.21
-23.80
-26.56
-29.31
-31.77
-33.53
-34.20
-33.44
-31.22
-27.79
-23.63
-19.23
-14.97
-10.96
-7.18
-3.59
-0.24
2.68
4.99
6.62
7.74
8.64
9.63
10.82
12.08
13.09
13.44
12.87
11.29
8.89
6.00
3.01
0.25
-2.08
-3.93
-5.46
-6.96
-8.77
-11.22
-14.44
-18.26
-22.19
-25.56
-27.64
-27.91
-26.17
-22.62
-17.72
-12.07
-6.20
-0.45
5.00
10.14
14.90
19.23
22.94
25.84
27.82
28.96
29.46
29.61
29.60
29.48
29.11
28.35
27.16
25.67
24.15
22.84
21.76
20.78
19.58
17.85
15.44
12.32
8.56
4.32
-0.20
-4.68
-8.65
-11.57
-12.96
-12.55
-10.44
-7.06
-2.98
1.36
5.65
9.89
14.07
18.09
21.68
24.42
25.94
26.11
25.15
23.50
21.66
19.96
18.41
16.76
14.70
12.03
8.80
5.27
1.79
-1.34
-3.97
-6.05
-7.58
-8.59
-9.13
-9.35
-9.59
-10.28
-11.82
-14.32
-17.41
-20.30
-22.02
-21.77
-19.28
-14.85
-9.22
-3.20
2.62
8.05
13.16
18.07
22.72
26.85
30.15
32.41
33.70
34.32
34.59
34.73
34.72
34.31
33.25
31.37
28.77
25.74
22.65
19.78
17.26
15.01
12.85
10.65
8.40
6.22
4.26
2.54
0.89
-0.98
-3.25
-5.81
-8.15
-9.55
-9.32
-7.18
-3.32
1.64
6.96
12.01
16.51
20.37
23.66
26.36
28.35
29.48
29.67
28.95
27.49
25.46
22.97
20.12
16.92
13.47
9.92
6.45
3.23
0.34
-2.22
-4.51
-6.61
-8.56
-10.32
-11.87
-13.19
-14.27
-15.21
-16.13
-17.23
-18.70
-20.67
-23.06
-25.57
-27.66
-28.69
-28.10
-25.55
-21.14
-15.31
-8.76
-2.21
3.75
8.76
12.68
15.48
17.20
17.95
17.90
17.32
16.57
16.00
15.83
16.07
16.60
17.19
17.67
17.98
18.12
18.13
17.96
17.51
16.66
15.42
13.91
12.42
11.17
10.31
9.77
9.30
8.61
7.42
5.55
3.01
-0.09
-3.38
-6.37
-8.46
-9.11
-8.07
-5.49
-1.89
1.98
5.40
7.92
9.39
9.96
9.85
9.30
8.46
7.43
6.37
5.43
4.77
4.46
4.50
4.85
5.55
6.74
8.62
11.35
14.89
18.99
23.13
26.75
29.34
30.57
30.31
28.59
25.55
21.37
16.26
10.45
4.26
-1.87
-7.39
-11.68
-14.13
-14.32
-12.13
-7.83
-2.05
4.31
10.26
14.92
17.73
18.46
17.31
14.78
11.52
8.21
5.41
3.45
2.42
2.25
2.68
3.32
3.75
3.61
2.67
0.94
-1.33
-3.78
-6.03
-7.84
-9.11
-9.88
-10.25
-10.30
-10.14
-9.89
-9.70
-9.79
-10.32
-11.36
-12.80
-14.38
-15.73
-16.44
-16.20
-14.89
-12.59
-9.62
-6.41
-3.43
-1.09
0.33
0.82
0.58
0.00
-0.45
-0.43
0.18
1.28
2.55
3.67
4.43
4.77
4.79
4.58
4.23
3.77
3.20
2.51
1.77
1.07
0.55
0.35
0.54
1.07
1.73
2.19
2.13
1.29
-0.33
-2.50
-4.75
-6.53
-7.43
-7.30
-6.25
-4.66
-2.99
-1.60
-0.71
-0.36
-0.52
-1.17
-2.31
-3.94
-6.03
-8.35
-10.59
-12.39
-13.49
-13.81
-13.51
-12.90
-12.33
-12.10
-12.30
-12.87
-13.61
-14.31
-14.81
-15.07
-15.15
-15.17
-15.22
-15.34
-15.55
-15.92
-16.44
-17.01
-17.40
-17.17
-15.86
-13.19
-9.23
-4.48
0.33
4.46
7.43
9.17
9.90
9.98
9.68
9.17
8.53
7.88
7.38
7.24
7.61
8.45
9.56
10.69
11.61
12.21
12.42
12.23
11.59
10.37
8.45
5.79
2.49
-1.20
-5.02
-8.79
-12.45
-16.03
-19.51
-22.74
-25.35
-26.81
-26.62
-24.53
-20.64
-15.49
-9.94
-4.98
-1.51
-0.05
-0.58
-2.71
-5.97
-9.92
-14.28
-18.93
-23.85
-28.91
-33.94
-38.52
-42.40
-45.59
-48.47
-51.45
-54.76
-58.28
-61.14
-61.66
-57.48
-46.77
-29.02
-4.99
23.91
56.29
90.79
125.61
157.91
184.21
200.71
204.60
195.30
174.70
146.31
113.78
79.88
44.37
9.16
-21.96
-44.47
-55.48
-55.22
-46.62
-33.79
-20.07
-7.66
2.97
11.97
19.56
25.86
31.07
35.46
39.10
42.32
45.50
49.54
55.07
62.22
70.24
77.72
83.06
84.36
80.64
72.13
60.48
47.96
36.73
27.58
20.09
12.98
3.91
-8.84
-25.91
-46.37
-68.57
-90.71
-112.68
-135.85
-157.09
-175.51
-191.20
-205.46
-220.22
-237.12
-255.26
-271.00
-276.71
-263.66
-227.61
-172.25
-109.72
-56.12
-25.35
-23.48
-49.29
-94.97
-150.10
-205.92
-255.91
-295.25
-319.44
-325.30
-302.60
-252.05
-185.98
-122.59
-76.63
-52.67
-48.12
-53.72
-61.86
-68.01
-71.87
-74.04
-74.46
-72.96
-69.45
-64.43
-58.51
-52.74
-47.59
-44.39
-43.76
-45.39
-48.44
-52.05
-55.86
-59.59
-63.23
-66.33
-68.87
-70.40
-70.03
-66.89
-60.56
-51.33
-39.91
-27.26
-14.06
-1.02
11.56
23.63
35.22
46.21
56.31
65.35
73.41
81.05
89.01
98.09
108.86
121.46
135.53
150.47
165.65
180.74
195.77
211.24
227.97
246.88
268.49
292.43
316.95
339.05
355.13
362.19
358.87
346.03
326.39
303.57
280.96
260.76
243.80
229.82
218.04
207.58
197.74
187.97
177.88
167.24
156.08
144.64
133.34
122.61
112.76
103.81
95.50
87.36
79.00
70.34
61.79
54.17
48.45
45.32
44.94
46.85
50.08
53.50
56.01
56.81
55.34
51.38
45.24
37.85
30.56
24.54
19.66
13.64
2.31
-19.00
-53.06
-98.59
-149.60
-196.83
-230.71
-244.61
-236.64
-209.35
-167.84
-117.50
-62.82
-7.41
45.31
91.72
128.13
151.49
159.77
152.01
128.22
89.50
38.45
-20.60
-81.85
-139.42
-188.92
-229.04
-261.54
-290.34
-319.52
-351.67
-386.84
-421.72
-449.89
-462.14
-449.72
-408.27
-341.37
-261.20
-185.63
-131.45
-107.10
-108.57
-119.67
-120.26
-95.05
-39.60
39.45
128.96
215.99
292.67
357.01
412.49
462.41
507.46
546.26
577.57
601.57
619.56
632.29
637.92
634.33
617.75
584.40
532.97
465.95
388.86
309.00
233.55
153.27
65.54
-26.74
-115.79
-192.63
-251.52
-292.59
-319.58
-336.87
-347.63
-350.88
-345.42
-331.55
-312.78
-293.95
-280.48
-276.64
-284.94
-306.13
-337.52
-375.15
-415.41
-454.53
-482.98
-491.68
-476.01
-438.99
-390.59
-345.32
-308.61
-281.23
-260.98
-244.30
-228.86
-214.11
-200.41
-187.95
-175.17
-159.23
-138.42
-112.37
-81.93
-49.40
-17.67
11.00
35.62
56.81
76.48
95.94
115.91
136.57
157.37
177.50
196.40
214.03
230.62
246.31
259.85
268.97
271.23
264.90
249.95
228.37
203.56
179.06
157.35
138.91
122.83
108.06
94.40
82.71
74.31
69.83
68.47
68.21
66.68
62.34
55.18
46.45
37.74
30.10
23.56
17.32
10.31
1.82
-8.26
-19.49
-31.04
-41.97
-51.37
-58.55
-63.14
-65.04
-64.39
-61.51
-56.81
-50.72
-43.72
-36.10
-27.86
-18.56
-7.32
6.68
23.79
43.58
64.71
85.19
102.66
114.79
119.67
116.38
105.47
89.13
70.86
54.32
42.23
35.49
33.05
32.65
31.81
28.74
22.67
13.78
3.09
-7.55
-15.78
-19.28
-16.87
-9.49
-0.63
4.71
2.18
-9.72
-28.58
-49.03
-64.98
-72.23
-69.77
-59.70
-45.91
-32.33
-21.83
-16.07
-15.79
-20.91
-30.10
-40.47
-47.75
-47.60
-37.19
-16.22
12.36
43.51
71.92
93.47
106.07
109.53
105.02
94.71
81.99
70.27
62.28
59.34
61.11
65.92
71.74
77.15
81.80
87.13
94.12
102.67
111.67
120.16
128.34
137.75
150.45
167.47
188.75
210.97
228.47
235.01
226.39
201.96
164.47
118.87
62.65
-1.81
-68.59
-129.77
-178.54
-211.36
-228.15
-231.22
-224.17
-210.95
-194.34
-176.79
-160.04
-144.65
-129.99
-114.78
-98.26
-80.92
-64.45
-50.92
-42.53
-40.89
-46.25
-57.49
-73.02
-91.64
-112.34
-134.38
-157.28
-180.51
-203.67
-226.31
-247.79
-266.78
-280.66
-289.19
-287.27
-270.42
-237.07
-190.07
-135.52
-80.30
-29.34
16.10
57.82
98.67
136.77
169.29
190.24
194.14
179.38
149.43
111.09
71.09
31.07
-9.42
-52.38
-98.85
-145.46
-183.90
-203.98
-198.51
-167.30
-117.57
-60.89
-8.01
34.78
67.30
93.66
118.64
144.96
172.59
200.42
228.36
257.56
288.59
319.49
344.69
356.40
347.73
315.73
263.28
198.71
132.78
74.79
30.03
-0.83
-20.49
-32.95
-42.72
-54.20
-71.15
-96.29
-130.51
-171.98
-215.49
-253.15
-273.40
-267.14
-234.02
-184.74
-135.98
-101.42
-86.31
-87.65
-97.95
-109.84
-119.63
-127.42
-133.84
-138.10
-137.51
-128.77
-109.36
-78.16
-35.44
15.45
68.61
117.81
158.37
188.29
207.68
217.93
220.75
217.62
209.70
198.62
186.87
176.97
169.78
162.83
150.67
127.21
89.15
38.54
-17.22
-68.01
-105.43
-125.92
-131.65
-128.35
-121.88
-115.76
-111.01
-107.45
-104.95
-103.31
-101.28
-95.79
-82.62
-58.71
-24.24
17.00
58.54
93.38
116.96
128.45
130.43
126.91
121.22
115.67
111.75
110.72
113.44
120.71
132.47
146.98
160.56
167.39
162.25
143.12
112.55
76.31
42.17
16.78
3.14
-0.12
0.77
-0.50
-7.49
-19.95
-36.12
-53.75
-71.74
-90.55
-111.38
-137.34
-170.17
-210.12
-249.50
-283.32
-308.99
-326.37
-337.13
-330.16
-301.17
-253.07
-194.73
-135.54
-81.99
-36.70
0.37
30.27
54.54
72.88
85.85
95.34
104.16
114.32
125.40
136.41
145.14
149.18
145.25
131.68
109.18
80.23
49.13
19.04
-8.22
-32.09
-52.81
-71.97
-90.92
-109.76
-130.69
-149.84
-163.53
-168.82
-164.26
-150.42
-130.38
-108.78
-89.91
-76.45
-68.34
-64.49
-62.66
-60.46
-56.02
-46.16
-30.14
-8.61
16.74
43.92
69.88
91.63
106.71
113.41
111.16
100.29
82.53
60.80
38.88
19.86
5.72
-2.97
-6.96
-7.75
-7.14
-6.39
-6.02
-5.87
-5.74
-5.44
-4.89
-4.15
-3.30
-2.56
-1.96
-1.31
-0.29
1.46
4.21
7.99
12.53
17.33
21.72
25.16
27.42
28.55
28.74
28.28
27.40
26.28
25.07
23.89
22.81
21.93
21.18
20.38
19.27
17.56
15.02
11.57
7.37
2.78
-1.76
-5.84
-9.26
-12.12
-14.67
-17.14
-19.62
-21.90
-23.54
-24.11
-23.47
-21.79
-19.47
-17.07
-15.11
-13.87
-13.34
-13.12
-12.62
-11.43
-9.43
-6.88
-4.36
-2.53
-1.76
-2.01
-2.71
-3.34
-3.87
-4.87
-7.29
-12.06
-19.47
-28.86
-38.74
-46.73
-51.33
-52.39
-51.18
-49.65
-49.86
-53.20
-59.94
-68.69
-75.35
-75.63
-65.97
-44.29
-10.10
35.25
89.14
148.64
211.42
277.99
348.63
422.88
499.49
576.06
648.22
709.02
749.62
761.31
740.60
687.50
606.19
504.43
391.83
277.57
168.60
69.70
-28.63
-122.30
-199.56
-248.85
-267.00
-259.86
-237.18
-207.60
-176.33
-145.81
-114.54
-81.93
-50.12
-22.86
-3.57
5.91
5.45
-3.87
-18.96
-33.66
-43.54
-47.07
-44.77
-37.71
-26.35
-16.37
-7.06
2.98
15.45
30.04
44.54
55.81
60.58
55.62
46.19
35.16
24.15
14.39
6.09
-1.42
-9.04
-17.17
-25.43
-32.75
-38.34
-42.04
-44.19
-45.94
-48.93
-54.76
-64.27
-77.23
-92.29
-108.06
-123.43
-138.00
-152.35
-167.75
-185.75
-207.11
-231.33
-256.56
-280.43
-300.63
-315.76
-325.96
-333.25
-341.87
-356.81
-382.34
-419.89
-466.68
-515.09
-554.44
-574.57
-570.03
-543.33
-502.68
-458.69
-419.88
-389.85
-367.05
-346.55
-322.78
-291.72
-252.94
-207.30
-157.32
-107.96
-66.95
-42.93
-41.45
-61.13
-93.04
-125.23
-145.06
-144.57
-123.21
-87.01
-44.95
-4.83
29.07
66.77
109.58
151.86
183.95
198.49
194.75
177.87
154.33
131.78
114.13
100.00
87.06
74.04
61.75
52.21
47.56
49.17
57.24
70.11
83.64
94.48
100.98
103.46
103.66
103.59
104.87
108.37
113.79
119.35
123.90
127.39
130.77
135.50
142.78
153.10
166.20
180.98
195.63
208.91
220.63
231.82
244.35
260.14
280.07
302.97
325.17
341.05
344.63
331.30
299.03
248.92
184.98
113.43
41.75
-22.38
-72.27
-103.29
-113.60
-104.38
-79.28
-43.46
-2.64
37.68
72.57
98.08
111.60
112.47
102.03
83.08
59.11
33.23
7.54
-16.98
-40.31
-62.73
-83.99
-102.79
-116.51
-121.75
-115.68
-97.56
-69.83
-37.78
-8.07
13.55
23.94
23.10
13.20
-2.99
-23.10
-45.52
-68.65
-90.44
-108.20
-119.05
-120.74
-112.10
-93.20
-64.92
-28.84
12.86
57.22
100.57
138.91
168.78
188.11
196.52
195.30
186.69
173.19
157.05
140.07
123.56
108.37
94.83
82.64
71.01
59.02
46.09
32.46
19.07
7.25
-1.95
-8.02
-11.24
-12.36
-12.18
-11.32
-10.02
-8.27
-5.94
-2.90
0.94
5.49
10.54
15.60
20.05
23.25
24.80
24.71
23.35
21.34
19.09
16.66
13.74
9.95
5.24
0.14
-4.33
-7.15
-7.88
-7.01
-5.89
-6.15
-9.02
-14.59
-21.73
-28.46
-32.85
-33.94
-32.28
-29.68
-28.33
-29.96
-35.16
-43.51
-54.18
-66.50
-79.67
-91.92
-100.07
-100.38
-90.84
-73.27
-53.26
-37.47
-29.76
-28.95
-29.91
-27.39
-19.80
-10.32
-4.29
-4.92
-10.38
-14.47
-10.49
4.50
27.83
53.02
73.53
86.03
90.95
90.80
87.97
83.27
76.06
65.36
50.98
33.93
16.29
0.32
-12.41
-21.43
-27.40
-31.55
-34.89
-37.68
-39.42
-39.21
-36.37
-30.86
-23.36
-14.97
-6.77
0.57
6.88
12.30
17.10
21.30
24.70
26.93
27.70
27.03
25.27
22.90
20.40
17.98
15.69
13.43
11.16
8.95
6.94
5.19
3.60
1.96
0.18
-1.63
-3.12
-3.83
-3.46
-2.03
0.08
2.27
3.95
4.80
4.82
4.28
3.69
3.50
4.06
5.51
7.74
10.51
13.46
16.29
18.76
20.77
22.24
23.16
23.60
23.68
23.50
23.17
22.69
21.99
21.01
19.78
18.48
17.38
16.66
16.28
15.95
15.29
14.05
12.19
9.87
7.28
4.46
1.28
-2.43
-6.71
-11.24
-15.38
-18.35
-19.44
-18.34
-15.25
-10.82
-5.92
-1.38
2.28
4.91
6.63
7.68
8.17
8.11
7.49
6.37
5.04
3.95
3.50
3.88
4.96
6.24
7.09
6.86
5.07
1.50
-3.79
-10.53
-18.28
-26.37
-33.98
-40.16
-44.09
-45.18
-43.21
-38.42
-31.41
-23.17
-14.94
-8.02
-3.51
-2.03
-3.60
-7.67
-13.30
-19.46
-25.22
-29.78
-32.52
-33.07
-31.49
-28.33
-24.58
-21.35
-19.39
-18.83
-19.20
-19.76
-19.87
-19.21
-17.73
-15.51
-12.56
-8.88
-4.63
-0.18
3.96
7.32
9.78
11.64
13.57
16.42
20.95
27.60
36.33
46.70
58.05
69.76
81.48
93.18
105.06
117.28
129.60
141.28
151.33
158.91
163.92
167.15
170.00
173.79
179.05
185.00
189.64
190.45
185.36
173.62
155.81
133.39
107.73
79.71
49.28
15.91
-20.82
-60.67
-102.64
-145.11
-185.80
-221.67
-249.02
-264.47
-266.80
-258.63
-246.75
-239.81
-244.17
-260.02
-280.27
-292.96
-286.13
-253.27
-196.42
-125.95
-57.10
-5.24
18.37
9.37
-28.77
-85.73
-146.74
-196.21
-221.63
-216.35
-181.31
-124.66
-59.59
-1.54
35.15
40.69
12.72
-42.35
-110.49
-173.85
-216.06
-226.81
-204.65
-156.13
-92.90
-27.52
29.70
72.70
99.95
113.64
118.41
119.81
122.90
131.26
145.81
164.21
181.40
191.05
187.77
169.21
137.50
98.89
61.97
34.73
22.14
25.15
41.43
66.84
96.79
126.32
149.49
159.95
153.00
128.40
92.01
54.30
25.53
10.05
3.82
-3.24
-20.75
-52.01
-92.12
-130.94
-159.10
-172.19
-171.14
-158.75
-136.05
-101.53
-54.29
1.52
55.14
92.65
103.88
88.34
55.85
21.24
-3.66
-16.01
-21.88
-30.92
-49.48
-75.89
-100.76
-112.11
-101.78
-69.75
-24.05
22.97
59.95
80.31
83.48
73.47
56.11
36.51
17.96
2.25
-9.27
-14.65
-11.85
-0.12
18.43
38.41
52.28
53.06
36.87
4.55
-37.79
-80.24
-111.96
-124.93
-117.20
-94.40
-67.64
-49.05
-46.28
-58.81
-77.93
-90.90
-87.02
-62.29
-20.55
29.02
76.08
112.41
133.34
137.10
124.19
97.44
62.71
29.09
7.41
6.88
31.29
76.50
130.60
177.45
201.87
194.30
153.53
86.82
7.75
-67.16
-122.40
-147.57
-140.01
-105.76
-57.98
-13.01
14.99
18.15
-3.34
-42.25
-87.83
-128.98
-156.51
-164.19
-149.24
-113.11
-61.94
-5.86
43.43
76.60
90.22
87.70
77.22
67.57
64.09
66.89
72.06
74.76
71.92
63.40
51.49
39.20
28.91
22.04
19.37
21.27
27.73
37.96
50.09
61.02
67.00
64.99
53.69
34.32
10.39
-13.32
-32.08
-42.50
-43.50
-36.60
-25.40
-14.42
-7.80
-7.76
-13.91
-23.70
-33.44
-40.02
-41.91
-39.27
-33.27
-25.16
-16.01
-6.99
0.23
4.01
3.71
0.40
-3.52
-5.70
-5.23
-3.11
-1.22
-0.57
-0.31
1.76
7.65
17.57
29.56
40.89
49.73
56.00
60.80
64.84
66.96
64.40
54.51
36.52
12.88
-11.45
-30.81
-41.20
-41.80
-34.91
-24.47
-14.03
-5.24
2.34
10.27
19.75
30.57
41.18
49.52
54.30
55.67
55.07
54.42
55.05
57.06
59.41
60.58
59.38
55.59
49.94
43.67
37.90
33.14
29.21
25.51
21.50
17.00
12.35
8.10
4.69
2.19
0.22
-1.83
-4.44
-7.71
-11.28
-14.42
-16.37
-16.71
-15.45
-13.03
-10.18
-7.59
-5.76
-4.84
-4.67
-4.85
-4.95
-4.61
-3.70
-2.27
-0.57
1.09
2.39
3.11
3.10
2.26
0.60
-1.85
-4.99
-8.63
-12.46
-16.08
-19.04
-20.93
-21.58
-21.15
-20.12
-19.15
-18.83
-19.44
-20.92
-22.93
-24.98
-26.65
-27.59
-27.56
-26.40
-24.07
-20.69
-16.65
-12.52
-8.98
-6.61
-5.78
-6.49
-8.46
-11.17
-14.03
-16.43
-17.89
-18.09
-17.00
-14.84
-12.04
-9.15
-6.65
-4.93
-4.18
-4.37
-5.31
-6.71
-8.22
-9.63
-10.86
-12.02
-13.31
-14.83
-16.42
-17.66
-17.99
-16.98
-14.56
-11.08
-7.12
-3.27
0.08
2.85
5.09
6.81
7.91
8.17
7.46
5.84
3.62
1.25
-0.88
-2.54
-3.71
-4.53
-5.16
-5.70
-6.15
-6.47
-6.60
-6.55
-6.44
-6.48
-6.96
-8.18
-10.29
-13.24
-16.69
-20.03
-22.55
-23.63
-23.00
-20.77
-17.42
-13.56
-9.74
-6.27
-3.22
-0.48
2.05
4.44
6.64
8.60
10.21
11.41
12.09
12.17
11.55
10.22
8.35
6.24
4.26
2.66
1.48
0.49
-0.62
-2.16
-4.17
-6.51
-8.88
-10.98
-12.67
-14.01
-15.16
-16.32
-17.59
-18.86
-19.87
-20.25
-19.66
-17.89
-15.03
-11.34
-7.23
-3.11
0.80
4.41
7.68
10.52
12.76
14.17
14.59
14.09
12.90
11.41
9.99
8.79
7.75
6.61
5.09
3.04
0.56
-2.01
-4.25
-5.82
-6.59
-6.73
-6.58
-6.54
-6.89
-7.73
-8.91
-10.12
-10.94
-10.91
-9.66
-6.95
-2.79
2.55
8.54
14.51
19.84
24.13
27.31
29.48
30.76
31.08
30.21
27.89
24.06
19.08
13.64
8.51
4.16
0.63
-2.52
-5.87
-9.73
-13.93
-17.82
-20.54
-21.38
-20.12
-17.11
-13.15
-9.11
-5.62
-2.79
-0.30
2.33
5.35
8.57
11.32
12.72
12.07
9.25
4.79
-0.25
-4.61
-7.24
-7.59
-5.66
-1.81
3.51
9.94
17.28
25.32
33.76
42.02
49.22
54.21
55.67
52.36
43.48
29.09
10.62
-9.15
-26.37
-37.28
-39.47
-32.95
-20.26
-5.65
6.39
12.69
12.22
6.07
-3.50
-14.12
-24.34
-33.80
-42.93
-52.19
-61.36
-69.44
-74.97
-76.68
-74.00
-67.22
-57.19
-44.78
-30.64
-15.45
-0.51
11.90
18.75
17.48
7.33
-9.82
-29.73
-47.26
-58.36
-61.41
-57.43
-49.31
-40.41
-33.47
-30.21
-31.24
-36.24
-43.78
-51.15
-54.43
-49.61
-34.38
-9.90
18.71
44.10
59.89
63.60
57.47
46.78
36.53
28.66
21.61
12.24
-1.12
-16.90
-30.82
-38.40
-37.72
-30.43
-20.59
-12.09
-6.60
-3.04
1.07
7.81
17.51
28.63
38.80
46.07
49.83
50.92
50.79
50.58
50.45
49.60
46.83
41.42
33.77
25.36
18.18
13.88
13.07
15.17
18.68
21.94
23.78
23.85
22.58
20.77
19.12
17.85
16.68
15.04
12.49
9.05
5.37
2.51
1.55
3.32
8.11
15.71
25.34
35.52
44.06
48.28
45.73
35.29
18.17
-1.80
-19.13
-28.63
-27.46
-16.21
1.39
20.01
34.59
41.57
39.43
28.33
9.77
-13.69
-38.65
-61.48
-79.37
-91.42
-98.91
-104.65
-111.46
-120.84
-132.45
-144.69
-155.74
-164.21
-169.15
-169.22
-162.36
-145.82
-116.87
-74.00
-18.12
47.04
115.50
180.12
234.33
273.28
294.17
295.89
279.01
246.12
202.72
156.87
117.34
90.08
74.90
64.80
48.89
18.16
-29.28
-86.36
-140.07
-177.56
-191.72
-183.46
-159.62
-128.86
-98.14
-71.26
-49.79
-34.57
-26.44
-25.73
-31.47
-40.76
-49.19
-52.31
-47.25
-33.73
-13.96
8.06
28.00
42.38
49.49
49.52
44.22
36.10
27.62
20.50
15.47
12.46
10.91
10.29
10.34
11.09
12.76
15.52
19.31
23.82
28.55
33.02
36.85
39.87
42.05
43.47
44.24
44.45
44.13
43.21
41.58
39.11
35.75
31.59
26.90
22.00
17.23
12.82
8.84
5.26
2.02
-0.97
-3.72
-6.23
-8.46
-10.33
-11.71
-12.50
-12.61
-12.02
-10.80
-9.09
-6.95
-4.45
-1.67
1.20
3.84
5.83
6.82
6.65
5.44
3.51
1.23
-1.10
-3.30
-5.26
-6.89
-8.07
-8.70
-8.80
-8.50
-7.99
-7.48
-7.09
-6.84
-6.75
-6.81
-7.05
-7.48
-8.02
-8.53
-8.84
-8.85
-8.60
-8.20
-7.77
-7.28
-6.61
-5.59
-4.19
-2.55
-0.96
0.26
0.91
0.99
0.63
0.03
-0.70
-1.47
-2.24
-2.95
-3.51
-3.89
-4.21
-4.64
-5.40
-6.59
-8.09
-9.67
-11.02
-11.90
-12.23
-12.07
-11.56
-10.89
-10.24
-9.81
-9.84
-10.53
-11.96
-13.93
-15.95
-17.34
-17.48
-16.12
-13.43
-10.07
-6.79
-4.18
-2.41
-1.31
-0.46
0.40
1.32
2.12
2.61
2.67
2.42
2.06
1.76
1.63
1.61
1.63
1.64
1.60
1.54
1.46
1.36
1.17
0.83
0.26
-0.59
-1.71
-3.05
-4.48
-5.91
-7.24
-8.34
-9.04
-8.98
-7.76
-5.04
-0.81
4.62
10.64
16.69
22.56
28.38
34.44
40.85
47.36
53.33
58.09
61.18
62.45
61.84
59.09
53.73
45.31
33.92
20.52
6.83
-5.31
-14.73
-21.46
-26.69
-32.02
-38.61
-46.61
-55.15
-62.98
-69.02
-72.88
-74.88
-75.74
-76.29
-77.28
-79.34
-83.10
-88.92
-96.81
-105.86
-114.28
-119.84
-120.51
-115.30
-104.82
-91.43
-78.75
-70.38
-68.23
-71.20
-74.99
-73.41
-60.84
-34.47
4.51
51.73
101.77
150.57
196.85
242.05
289.11
340.80
398.34
460.50
523.53
581.48
627.35
654.89
660.46
644.37
610.38
564.39
512.26
458.29
404.87
353.09
303.67
257.55
215.67
178.44
145.53
116.20
90.08
67.71
50.41
39.78
36.64
40.22
47.96
56.05
60.49
58.16
47.57
28.94
3.88
-25.50
-57.17
-89.75
-122.58
-155.59
-188.98
-222.64
-255.74
-286.53
-312.63
-331.70
-342.24
-344.24
-339.26
-329.91
-318.79
-307.67
-297.13
-286.83
-276.08
-264.47
-252.13
-239.58
-227.40
-215.86
-204.98
-194.46
-183.99
-173.28
-162.23
-150.92
-139.57
-128.48
-117.95
-108.20
-99.25
-90.94
-82.95
-74.95
-66.65
-57.99
-49.22
-40.94
-33.94
-28.84
-25.78
-24.09
-22.42
-19.23
-13.56
-5.76
2.52
8.90
11.48
9.97
6.19
3.58
5.91
15.49
31.85
51.57
69.31
79.91
80.55
72.10
58.98
47.41
42.98
48.14
61.01
75.74
84.42
79.57
56.47
14.96
-39.53
-96.30
-141.49
-162.05
-150.64
-109.04
-48.39
14.57
63.70
89.46
91.36
76.17
53.26
29.59
7.25
-15.94
-43.72
-78.33
-118.72
-160.42
-196.80
-221.13
-228.80
-219.13
-195.80
-165.59
-135.57
-110.41
-91.08
-75.59
-61.41
-47.85
-36.74
-31.10
-32.76
-40.57
-50.60
-58.07
-59.81
-55.74
-48.78
-42.86
-40.93
-43.51
-48.66
-53.31
-54.82
-52.20
-46.37
-39.46
-33.74
-30.54
-29.90
-30.74
-31.54
-31.09
-28.96
-25.55
-21.86
-18.99
-17.71
-18.19
-19.93
-22.06
-23.70
-24.29
-23.75
-22.44
-20.90
-19.60
-18.71
-18.10
-17.41
-16.24
-14.30
-11.50
-8.00
-4.16
-0.42
2.73
4.90
5.86
5.61
4.40
2.61
0.65
-1.10
-2.44
-3.29
-3.70
-3.78
-3.62
-3.27
-2.71
-1.93
-0.95
0.14
1.15
1.97
2.59
3.17
3.94
5.04
6.37
7.50
7.90
7.16
5.32
2.88
0.62
-0.75
-0.87
0.14
1.84
3.72
5.44
6.93
8.27
9.51
10.56
11.21
11.25
10.62
9.50
8.21
7.14
6.53
6.41
6.68
7.11
7.60
8.15
8.88
9.89
11.13
12.42
13.48
14.07
14.09
13.62
12.85
11.99
11.23
10.70
10.50
10.68
11.26
12.13
13.13
14.02
14.65
15.07
15.44
15.99
16.92
18.27
19.90
21.62
23.23
24.59
25.61
26.31
26.70
26.87
26.99
27.20
27.62
28.26
29.00
29.63
29.95
29.88
29.42
28.70
27.81
26.77
25.49
23.82
21.68
19.15
16.46
13.87
11.57
9.53
7.63
5.71
3.75
1.90
0.41
-0.54
-0.95
-0.96
-0.78
-0.53
-0.30
-0.22
-0.48
-1.35
-2.95
-5.21
-7.76
-10.15
-12.02
-13.32
-14.23
-15.07
-16.08
-17.35
-18.86
-20.62
-22.69
-25.19
-28.20
-31.63
-35.27
-38.86
-42.20
-45.25
-48.09
-50.83
-53.51
-56.07
-58.37
-60.16
-61.32
-61.82
-61.81
-61.47
-61.06
-60.68
-60.35
-59.97
-59.43
-58.70
-57.91
-57.29
-57.03
-57.25
-57.85
-58.58
-59.08
-59.03
-58.28
-56.92
-55.29
-53.87
-53.16
-53.51
-54.95
-57.22
-59.89
-62.53
-64.84
-66.81
-68.55
-70.16
-71.52
-72.23
-71.74
-69.60
-65.70
-60.33
-54.12
-47.73
-41.59
-35.81
-30.24
-24.74
-19.37
-14.47
-10.45
-7.61
-5.92
-5.01
-4.35
-3.37
-1.74
0.62
3.58
6.83
10.05
12.89
15.13
16.68
17.57
17.96
18.03
17.93
17.81
17.88
18.46
20.06
23.24
28.43
35.79
45.09
55.76
67.01
77.96
87.80
95.85
101.71
105.33
107.06
107.52
107.48
107.54
107.91
108.38
108.38
107.35
104.94
101.21
96.58
91.53
86.27
80.61
73.86
65.09
53.49
38.58
20.40
-0.67
-24.00
-48.86
-74.40
-99.64
-123.45
-144.56
-161.75
-173.98
-180.53
-181.17
-176.22
-166.72
-154.57
-142.35
-132.71
-127.45
-126.54
-127.87
-127.92
-123.10
-111.19
-92.13
-67.77
-40.98
-14.56
9.31
29.35
45.01
56.29
63.62
67.66
69.13
68.47
65.76
60.78
53.46
44.23
34.12
24.51
16.76
11.91
10.56
12.80
18.27
26.08
34.99
43.65
51.07
56.91
61.38
64.92
67.82
69.96
70.95
70.47
68.53
65.62
62.48
59.74
57.72
56.38
55.49
54.79
54.22
53.77
53.40
52.89
51.84
49.86
46.80
42.92
38.86
35.49
33.56
33.49
35.31
38.72
43.41
49.22
56.28
64.92
75.49
88.10
102.46
117.82
133.11
147.21
159.32
169.15
177.21
184.43
191.65
199.19
206.36
211.84
213.97
211.35
203.36
190.43
173.70
154.71
135.25
117.22
102.70
93.15
88.31
85.37
79.23
64.04
35.86
-4.95
-53.48
-101.37
-140.45
-165.91
-177.29
-176.68
-166.93
-149.90
-126.25
-97.35
-65.14
-32.96
-4.96
16.14
31.58
45.54
63.46
89.80
124.81
167.39
214.29
260.59
301.71
335.92
363.64
386.77
407.43
424.36
437.55
446.40
448.95
443.88
431.62
413.78
391.85
366.41
334.09
295.20
252.08
207.82
145.10
52.68
-70.41
-214.22
-341.12
-439.40
-506.00
-540.21
-547.26
-527.91
-485.24
-423.76
-350.70
-273.96
-202.78
-139.44
-82.37
-40.80
-1.27
31.93
54.59
63.17
56.78
35.59
5.34
-26.57
-54.50
-74.05
-85.86
-90.08
-86.99
-76.87
-62.11
-44.69
-27.46
-14.39
-7.64
-10.02
-20.63
-36.65
-54.50
-71.79
-86.55
-97.89
-106.19
-111.59
-115.92
-119.79
-123.27
-125.99
-127.62
-127.64
-125.70
-121.89
-116.21
-109.61
-102.47
-94.86
-86.75
-78.21
-69.65
-61.78
-55.42
-51.00
-48.77
-48.18
-48.25
-47.93
-46.45
-43.56
-39.48
-34.71
-29.70
-24.66
-19.60
-14.58
-9.88
-6.13
-4.05
-4.09
-6.12
-9.48
-13.23
-16.59
-19.29
-21.46
-23.42
-25.36
-27.09
-28.21
-28.29
-27.03
-24.36
-20.34
-15.08
-8.77
-1.74
5.50
12.33
18.17
22.76
26.14
28.64
30.64
32.40
34.01
35.40
36.44
37.08
37.38
37.48
37.54
37.70
37.96
38.18
38.07
37.35
35.77
33.26
29.90
25.88
21.35
16.44
11.22
5.76
0.29
-4.83
-9.15
-12.33
-14.27
-15.17
-15.49
-15.70
-16.13
-16.84
-17.64
-18.27
-18.44
-17.96
-16.66
-14.28
-10.53
-5.08
2.28
11.55
22.47
34.58
47.21
59.55
70.65
79.49
85.10
86.79
84.27
77.88
68.47
57.23
45.38
33.92
23.41
14.00
5.56
-2.03
-8.72
-14.21
-18.14
-20.27
-20.71
-19.92
-18.50
-17.08
-16.11
-15.94
-16.88
-19.23
-23.18
-28.66
-35.17
-41.86
-47.81
-52.32
-55.12
-56.34
-56.25
-55.09
-52.96
-49.94
-46.21
-42.10
-37.90
-33.69
-29.19
-23.95
-17.61
-10.25
-2.50
4.63
10.05
13.10
13.68
12.25
9.55
6.34
3.15
0.27
-2.17
-4.09
-5.38
-5.91
-5.57
-4.38
-2.54
-0.35
1.86
3.84
5.45
6.64
7.34
7.40
6.53
4.45
1.03
-3.56
-8.82
-14.05
-18.60
-22.02
-24.17
-25.08
-24.85
-23.60
-21.41
-18.43
-14.88
-11.02
-7.00
-2.82
1.64
6.47
11.57
16.54
20.77
23.71
25.07
24.97
23.75
21.86
19.57
16.91
13.75
9.96
5.58
0.86
-3.85
-8.26
-12.26
-15.96
-19.56
-23.26
-27.18
-31.35
-35.78
-40.41
-45.20
-49.97
-54.52
-58.63
-62.20
-65.32
-68.27
-71.42
-75.04
-79.14
-83.32
-86.81
-88.61
-87.66
-83.11
-74.49
-61.73
-44.86
-23.67
2.62
35.48
76.70
127.76
188.97
258.81
333.81
409.08
479.28
539.69
586.95
619.21
635.85
637.09
623.71
597.18
559.83
514.92
466.23
417.26
370.46
326.74
285.60
245.78
206.11
166.09
126.08
87.02
49.95
15.43
-16.70
-47.31
-77.62
-108.68
-140.93
-173.95
-206.68
-237.86
-266.67
-293.14
-318.24
-343.53
-370.85
-401.74
-437.10
-476.74
-519.09
-561.20
-599.03
-628.28
-645.38
-648.69
-638.93
-618.99
-592.91
-564.43
-535.65
-506.55
-475.50
-440.49
-400.67
-356.90
-311.47
-266.84
-224.63
-185.00
-147.20
-110.29
-73.91
-38.11
-2.67
33.45
72.30
116.17
166.65
223.84
286.64
353.28
421.76
490.06
556.32
619.14
678.14
733.49
784.80
829.63
862.61
876.46
864.62
824.32
758.37
674.47
582.16
489.33
400.09
314.82
232.24
151.55
73.35
-0.99
-70.49
-135.16
-195.17
-249.94
-297.35
-334.23
-357.51
-365.95
-360.80
-345.41
-324.07
-300.59
-277.54
-256.22
-237.07
-220.11
-205.18
-191.90
-179.62
-167.63
-155.55
-143.52
-132.26
-122.54
-114.91
-109.28
-104.86
-100.39
-94.59
-86.66
-76.64
-65.37
-54.27
-44.81
-38.04
-34.31
-33.20
-33.86
-35.29
-36.74
-37.88
-38.84
-40.05
-42.02
-45.00
-48.90
-53.26
-57.37
-60.61
-62.66
-63.58
-63.80
-63.95
-64.63
-66.26
-69.00
-72.60
-76.44
-79.53
-80.73
-79.12
-74.34
-66.83
-57.62
-48.02
-39.06
-31.28
-24.72
-19.17
-14.58
-11.14
-9.25
-9.20
-10.87
-13.73
-17.02
-20.07
-22.61
-24.85
-27.29
-30.38
-34.28
-38.80
-43.42
-47.62
-51.05
-53.59
-55.39
-56.68
-57.74
-58.81
-60.07
-61.62
-63.48
-65.50
-67.34
-68.48
-68.21
-65.85
-60.94
-53.45
-43.75
-32.53
-20.47
-8.07
4.44
16.96
29.34
41.27
52.28
61.92
69.84
75.89
80.12
82.76
84.12
84.62
84.57
84.21
83.57
82.64
81.53
80.47
79.76
79.43
79.09
77.84
74.66
68.88
60.46
49.94
38.04
25.26
11.67
-2.79
-17.96
-33.07
-46.85
-57.93
-65.41
-69.18
-69.91
-68.70
-66.54
-64.04
-61.30
-58.14
-54.31
-49.83
-44.99
-40.34
-36.47
-33.72
-32.11
-31.17
-30.27
-28.89
-26.89
-24.59
-22.55
-21.17
-20.37
-19.61
-18.14
-15.47
-11.64
-7.30
-3.32
-0.50
0.76
0.45
-1.21
-4.03
-7.91
-12.73
-18.23
-23.83
-28.65
-31.72
-32.24
-29.88
-24.84
-17.78
-9.65
-1.34
6.49
13.48
19.51
24.58
28.68
31.79
33.95
35.26
35.99
36.47
37.04
37.89
38.97
39.95
40.33
39.60
37.45
33.89
29.21
23.81
17.92
11.50
4.28
-4.01
-13.38
-23.36
-33.07
-41.45
-47.58
-50.97
-51.59
-49.90
-46.59
-42.36
-37.82
-33.36
-29.22
-25.50
-22.25
-19.41
-16.81
-14.12
-11.00
-7.27
-3.10
0.96
4.19
6.09
6.70
6.73
7.31
9.49
13.73
19.79
26.80
33.77
39.93
44.90
48.55
50.71
50.99
48.80
43.66
35.47
24.74
12.47
-0.13
-11.97
-22.28
-30.72
-37.21
-41.79
-44.49
-45.29
-44.25
-41.56
-37.70
-33.35
-29.16
-25.53
-22.35
-19.07
-14.95
-9.46
-2.67
4.64
11.19
15.76
17.49
16.29
12.68
7.58
1.97
-3.35
-7.84
-11.20
-13.27
-14.09
-13.85
-12.98
-12.07
-11.71
-12.31
-13.88
-15.98
-17.84
-18.63
-17.77
-15.23
-11.40
-6.85
-2.03
2.76
7.36
11.57
15.02
17.31
17.84
16.27
12.73
7.82
2.39
-2.75
-7.10
-10.54
-13.25
-16.01
-19.52
-24.00
-29.18
-34.50
-39.42
-43.77
-47.78
-51.81
-57.57
-66.32
-78.37
-92.88
-108.34
-123.21
-136.43
-147.48
-155.87
-164.14
-174.30
-187.03
-201.39
-215.40
-227.33
-236.47
-243.04
-247.15
-253.68
-266.42
-286.86
-313.70
-344.00
-374.64
-403.60
-429.55
-450.51
-470.95
-494.57
-523.17
-555.90
-589.65
-620.36
-644.08
-657.49
-625.66
-529.72
-368.41
-160.70
63.65
279.41
474.03
644.20
781.71
888.70
957.96
983.24
965.64
915.74
849.86
783.16
723.74
673.99
633.32
594.31
551.81
504.54
454.69
405.88
360.82
320.37
283.61
249.71
214.17
173.64
126.64
73.55
15.71
-44.65
-104.18
-158.09
-199.13
-221.19
-218.91
-189.58
-134.92
-62.06
17.42
89.61
140.63
160.87
146.26
99.69
29.49
-53.51
-138.35
-214.78
-273.22
-306.80
-312.03
-291.14
-252.80
-210.39
-177.89
-164.66
-171.85
-182.47
-177.90
-144.56
-81.70
-0.85
82.08
155.69
216.16
264.79
303.26
331.97
348.04
347.86
331.13
301.78
267.14
234.74
209.50
193.06
181.69
168.01
143.47
101.79
41.58
-32.43
-110.17
-178.75
-226.14
-245.67
-237.67
-208.56
-167.67
-123.92
-83.60
-49.86
-23.99
-6.75
0.59
-3.42
-19.60
-47.21
-84.01
-126.17
-168.29
-203.75
-225.48
-228.16
-209.95
-174.05
-127.36
-77.77
-30.95
11.67
52.75
97.18
149.27
210.19
275.40
336.32
382.92
407.32
406.43
382.64
342.18
292.48
239.13
182.79
121.50
53.86
-17.80
-86.89
-145.05
-185.80
-207.23
-212.23
-209.26
-207.59
-214.35
-232.80
-262.77
-302.19
-348.53
-398.53
-433.11
-435.34
-397.00
-325.47
-239.79
-159.40
-95.41
-49.77
-18.33
4.70
20.71
28.29
25.49
13.16
-5.65
-22.86
-30.83
-24.55
-1.97
34.19
78.78
125.45
167.15
195.96
206.66
197.81
172.55
137.70
100.66
68.36
46.22
37.44
43.91
64.29
93.64
123.63
144.34
146.32
123.54
74.93
4.37
-79.36
-164.17
-237.15
-287.33
-308.25
-299.96
-268.53
-222.67
-173.56
-130.18
-96.97
-73.64
-57.14
-43.92
-31.99
-20.91
-11.28
-3.85
1.73
6.64
12.48
20.81
33.01
49.66
70.07
91.43
108.85
117.28
113.73
99.19
78.62
58.93
46.10
43.04
49.28
62.34
79.59
98.50
115.67
126.07
123.83
104.98
70.61
27.79
-12.43
-39.41
-47.33
-36.68
-12.61
18.74
53.35
89.66
126.25
159.16
181.12
183.87
162.94
121.44
70.61
26.05
1.08
0.90
20.63
48.54
72.49
85.82
89.35
88.39
87.62
87.11
82.31
67.93
42.59
10.99
-18.02
-36.36
-41.24
-36.44
-29.71
-27.98
-33.45
-43.07
-51.38
-54.72
-53.89
-53.61
-59.01
-72.04
-89.82
-106.26
-115.41
-114.46
-104.57
-89.34
-72.60
-56.86
-43.31
-32.65
-25.65
-22.86
-23.93
-27.23
-30.71
-33.26
-35.65
-40.11
-48.44
-60.25
-72.33
-79.83
-78.58
-66.82
-45.50
-17.18
15.40
49.97
84.63
117.17
144.95
165.45
177.46
182.08
182.37
181.81
182.26
182.85
180.65
172.61
157.75
138.29
118.68
103.37
94.48
90.62
87.58
80.32
65.09
40.75
8.70
-28.36
-67.93
-108.42
-148.98
-188.43
-224.41
-253.11
-269.82
-270.89
-255.36
-225.84
-187.72
-147.07
-108.25
-71.99
-36.13
2.03
42.42
80.48
108.44
118.98
109.53
84.68
54.89
31.82
23.16
29.52
45.08
61.36
71.51
73.17
67.95
59.38
49.81
39.41
27.04
12.14
-3.79
-17.62
-25.58
-25.56
-17.11
-3.11
11.34
20.71
21.18
12.29
-3.65
-21.57
-36.46
-42.69
-37.94
-23.44
-2.93
19.51
42.10
65.04
91.98
125.91
170.74
225.61
284.87
340.18
384.18
414.13
430.89
441.19
451.91
472.78
509.46
562.14
625.28
688.68
740.97
770.69
774.53
720.87
595.91
406.80
182.31
-39.96
-232.30
-370.01
-466.62
-538.61
-597.71
-644.21
-674.50
-687.33
-681.65
-659.73
-626.75
-591.78
-560.34
-536.21
-516.56
-496.53
-471.77
-440.43
-404.29
-366.76
-332.43
-301.52
-272.67
-241.73
-205.83
-164.60
-119.96
-75.29
-32.97
5.55
41.69
76.30
109.10
137.25
156.82
165.26
163.34
155.97
150.12
153.29
170.19
201.93
246.18
298.38
352.87
403.49
444.27
470.11
478.33
469.22
445.84
412.96
375.28
336.16
296.87
256.99
215.38
170.93
123.15
72.37
19.98
-31.51
-78.71
-117.99
-146.57
-163.31
-169.07
-166.27
-157.99
-147.02
-135.33
-124.14
-114.27
-106.43
-101.11
-98.39
-97.88
-99.14
-102.12
-107.32
-115.34
-126.11
-138.39
-149.90
-158.15
-161.48
-159.71
-153.84
-145.39
-135.49
-124.65
-113.08
-101.21
-89.95
-80.39
-73.21
-68.20
-64.38
-60.48
-55.54
-49.37
-42.55
-36.11
-31.16
-28.52
-28.60
-31.48
-37.02
-45.05
-55.31
-67.52
-81.15
-95.37
-109.11
-121.29
-131.14
-138.44
-143.63
-147.50
-150.81
-153.77
-155.79
-155.80
-152.71
-145.99
-135.91
-123.22
-108.72
-92.80
-75.47
-56.75
-37.13
-17.81
-0.54
13.02
21.90
26.13
26.64
24.84
22.11
19.53
17.80
17.22
17.86
19.55
21.89
24.32
26.19
26.97
26.38
24.50
21.67
18.26
14.56
10.61
6.38
1.90
-2.55
-6.42
-9.15
-10.42
-10.35
-9.42
-8.22
-7.13
-6.08
-4.63
-2.29
1.19
5.58
10.21
14.25
17.04
18.35
18.42
17.80
17.09
16.78
17.08
17.97
19.28
20.82
22.37
23.76
24.92
25.91
26.93
28.27
30.04
32.04
33.73
34.44
33.75
31.74
28.88
25.74
22.65
19.52
16.13
12.50
9.08
6.64
5.90
7.01
9.47
12.34
14.71
15.88
15.41
12.91
7.97
0.51
-8.98
-19.16
-28.18
-34.31
-36.59
-35.16
-31.04
-25.58
-19.89
-14.56
-9.70
-5.20
-0.99
2.86
6.25
9.08
11.40
13.31
14.87
16.10
16.84
16.79
15.62
13.21
9.79
6.07
3.11
1.91
3.12
6.79
12.41
19.11
25.99
32.31
37.60
41.64
44.34
45.59
45.23
43.00
38.61
31.91
23.08
12.65
1.50
-9.41
-19.23
-27.42
-33.74
-38.12
-40.56
-41.04
-39.66
-36.62
-32.36
-27.35
-22.09
-16.98
-12.31
-8.33
-5.23
-3.14
-2.14
-2.30
-3.69
-6.32
-10.06
-14.52
-19.01
-22.73
-24.97
-25.40
-24.10
-21.50
-18.07
-14.06
-9.44
-4.04
2.23
9.13
16.09
22.39
27.39
30.71
32.26
32.25
31.12
29.51
28.20
27.94
29.27
32.39
36.97
42.26
47.27
51.03
52.81
52.20
49.11
43.76
36.63
28.42
19.97
12.13
5.53
0.51
-2.93
-5.09
-6.39
-7.39
-8.58
-10.34
-12.80
-15.73
-18.57
-20.54
-21.02
-19.72
-16.88
-13.02
-8.71
-4.33
0.06
4.52
9.07
13.51
17.49
20.68
22.91
24.28
25.04
25.41
25.53
25.36
24.79
23.76
22.30
20.60
18.93
17.62
16.93
16.94
17.49
18.30
19.00
19.28
19.00
18.20
17.01
15.64
14.26
12.92
11.64
10.38
9.07
7.68
6.22
4.74
3.31
1.99
0.79
-0.36
-1.61
-3.09
-4.84
-6.69
-8.27
-9.09
-8.72
-7.00
-4.08
-0.38
3.62
7.61
11.45
15.26
19.20
23.30
27.46
31.36
34.61
36.90
38.04
38.10
37.28
35.88
34.15
32.20
30.01
27.59
25.08
22.82
21.24
20.68
21.25
22.74
24.73
26.76
28.49
29.75
30.52
30.80
30.59
29.79
28.26
25.87
22.53
18.29
13.30
7.82
2.14
-3.47
-8.78
-13.59
-17.73
-20.93
-22.92
-23.48
-22.49
-20.05
-16.42
-11.96
-6.98
-1.65
4.05
10.13
16.53
23.02
29.20
34.70
39.28
42.90
45.61
47.33
47.82
46.76
43.93
39.44
33.73
27.42
21.09
15.14
9.84
5.44
2.25
0.56
0.43
1.62
3.58
5.67
7.36
8.29
8.25
7.01
4.36
0.16
-5.50
-12.30
-19.79
-27.55
-35.33
-43.04
-50.53
-57.40
-63.03
-66.76
-68.18
-67.27
-64.37
-59.96
-54.43
-48.00
-40.74
-32.78
-24.33
-15.71
-7.34
0.41
7.23
12.89
17.20
20.11
21.75
22.44
22.61
22.67
22.87
23.22
23.50
23.46
22.90
21.83
20.40
18.87
17.40
16.04
14.66
13.17
11.58
10.10
9.00
8.43
8.29
8.12
7.38
5.68
2.98
-0.36
-3.75
-6.65
-8.71
-9.79
-9.97
-9.42
-8.43
-7.44
-6.95
-7.36
-8.83
-11.13
-13.71
-15.98
-17.43
-17.87
-17.43
-16.36
-14.88
-12.99
-10.61
-7.66
-4.24
-0.52
3.20
6.67
9.79
12.66
15.47
18.49
21.82
25.39
29.06
32.51
35.34
37.17
37.77
37.16
35.55
33.25
30.60
28.40
27.35
27.97
30.47
34.70
40.26
46.61
53.14
59.23
65.38
71.90
78.75
85.39
91.04
95.27
98.45
101.45
105.09
111.24
120.64
132.77
146.27
159.59
171.70
182.36
191.70
199.75
208.46
219.36
233.27
249.93
268.08
286.04
302.30
315.89
312.35
282.64
224.22
143.35
52.75
-34.45
-109.64
-169.68
-214.52
-244.64
-258.06
-254.16
-236.05
-211.56
-191.24
-184.03
-193.29
-215.76
-243.78
-267.63
-281.09
-282.71
-274.94
-261.64
-245.80
-228.93
-211.73
-195.19
-179.89
-166.65
-155.77
-146.71
-138.22
-128.67
-117.17
-104.20
-91.46
-80.83
-73.63
-69.76
-67.71
-65.28
-60.30
-51.76
-40.45
-28.48
-18.35
-12.21
-11.15
-14.47
-19.31
-20.90
-14.22
3.68
32.22
66.20
97.20
116.42
117.90
100.78
69.76
33.28
0.56
-21.16
-29.09
-25.19
-14.97
-5.31
-1.88
-7.29
-20.69
-38.79
-57.15
-72.63
-83.81
-90.51
-93.24
-92.54
-88.62
-80.87
-70.97
-59.92
-48.55
-36.87
-24.91
-13.45
-4.32
0.84
1.98
0.71
0.51
4.34
13.58
27.06
42.05
55.68
66.25
71.84
69.37
55.74
29.49
-6.05
-42.10
-66.93
-71.13
-51.23
-13.27
30.19
66.38
85.93
87.51
77.40
65.92
56.32
49.86
43.59
32.10
12.83
-12.69
-39.18
-60.72
-73.78
-79.00
-79.98
-81.85
-88.01
-98.24
-109.42
-117.67
-120.42
-117.46
-110.38
-98.54
-81.55
-58.39
-27.92
9.83
53.33
99.78
145.43
186.22
218.23
238.14
244.84
240.43
229.01
215.25
202.47
191.82
182.45
171.90
157.75
139.46
118.60
97.19
76.06
54.36
30.80
5.18
-22.23
-50.54
-78.81
-106.79
-135.70
-167.97
-205.49
-247.77
-282.50
-295.82
-280.02
-239.31
-186.17
-132.78
-86.13
-47.88
-16.38
10.82
34.03
52.16
64.24
70.85
74.28
77.32
82.20
89.96
100.44
111.05
118.27
119.10
112.39
98.88
80.37
58.84
36.92
16.64
-1.64
-18.48
-34.40
-49.16
-61.79
-71.14
-76.52
-77.84
-75.89
-72.34
-68.99
-66.98
-66.48
-66.76
-66.84
-66.10
-64.50
-62.81
-62.08
-62.93
-64.98
-66.94
-67.48
-66.42
-65.21
-66.17
-70.64
-77.00
-80.57
-75.15
-56.50
-24.90
14.26
52.73
83.12
101.71
107.89
102.36
85.29
56.60
18.43
-22.44
-55.03
-69.10
-59.30
-29.94
6.09
33.26
41.05
28.87
5.72
-15.03
-23.07
-15.51
3.08
24.78
43.06
55.51
63.48
70.01
77.09
84.76
91.43
95.31
95.47
91.90
85.46
77.08
67.48
56.94
45.45
32.49
17.70
0.84
-17.93
-38.15
-59.02
-79.80
-100.24
-120.00
-137.47
-148.95
-149.15
-133.67
-102.33
-60.70
-19.05
11.40
23.12
15.62
-4.32
-25.74
-38.05
-35.16
-17.06
11.28
42.76
70.59
90.04
99.27
98.79
90.81
78.41
64.34
51.10
41.28
37.68
42.37
55.48
73.68
90.60
98.87
93.54
74.18
47.79
25.26
16.01
24.03
46.02
74.03
99.38
116.57
124.58
125.22
120.65
111.82
98.10
77.52
49.12
13.60
-26.56
-67.47
-104.92
-135.75
-158.19
-171.86
-177.91
-177.36
-170.69
-157.85
-138.66
-113.19
-83.47
-53.19
-23.51
0.53
14.00
13.39
-3.24
-36.65
-82.09
-133.46
-182.42
-219.61
-237.37
-230.98
-200.91
-153.48
-99.19
-48.85
-10.62
12.66
22.91
24.02
20.14
13.87
6.38
-1.75
-9.31
-15.47
-19.99
-23.56
-27.70
-33.16
-39.65
-45.45
-49.11
-47.54
-38.96
-23.23
-1.85
22.92
49.19
75.67
102.08
129.18
156.71
184.87
212.43
235.46
247.98
244.03
220.59
180.11
130.75
83.37
47.15
25.64
16.64
13.26
8.29
-3.58
-24.88
-55.30
-92.56
-132.62
-170.04
-198.71
-212.40
-208.01
-186.93
-154.12
-116.12
-78.41
-43.86
-12.61
16.33
45.46
75.74
106.60
136.83
165.10
190.24
211.12
227.00
226.98
207.70
170.43
120.27
64.19
8.50
-42.45
-86.57
-123.20
-153.07
-175.02
-188.44
-194.42
-193.15
-184.88
-170.14
-149.87
-124.84
-96.31
-63.69
-27.06
12.75
54.39
96.09
136.37
170.70
195.97
204.66
193.17
161.41
113.20
54.96
-6.66
-66.34
-120.59
-167.10
-204.86
-232.80
-251.31
-261.03
-262.98
-258.82
-250.42
-239.61
-227.44
-214.51
-200.18
-184.44
-167.48
-149.93
-132.77
-117.04
-103.60
-92.73
-84.43
-78.12
-73.15
-68.87
-64.93
-61.34
-58.41
-56.59
-56.21
-57.62
-60.80
-65.49
-71.16
-77.18
-82.99
-88.26
-92.93
-97.23
-101.55
-106.11
-110.71
-114.57
-116.56
-115.48
-110.47
-101.32
-88.38
-72.39
-53.86
-32.74
-8.22
20.86
55.36
95.16
138.81
183.74
227.12
266.64
301.32
331.51
358.42
383.58
408.60
435.14
464.88
498.77
535.95
572.97
603.94
622.09
622.35
603.31
567.62
520.47
466.85
409.41
348.23
282.36
212.02
139.91
70.65
8.76
-43.37
-86.24
-122.24
-153.62
-180.97
-202.98
-217.54
-223.60
-222.25
-216.30
-208.89
-201.83
-194.73
-185.31
-170.71
-149.18
-121.27
-90.22
-61.05
-39.07
-27.90
-27.81
-35.19
-43.34
-44.83
-34.20
-9.97
24.84
63.98
100.30
128.20
145.40
153.08
153.98
150.33
142.49
129.49
111.11
89.74
70.73
60.18
61.95
75.24
94.99
114.42
128.66
137.02
142.80
151.62
168.85
198.23
241.05
295.84
357.96
419.33
469.75
499.47
502.77
479.64
435.44
377.68
313.37
247.03
180.68
115.19
51.46
-8.58
-63.50
-112.51
-156.95
-198.89
-240.04
-280.77
-320.28
-357.91
-392.89
-426.28
-458.21
-488.16
-512.79
-526.27
-522.09
-495.69
-447.35
-381.76
-310.39
-246.88
-206.36
-200.32
-233.89
-304.16
-401.10
-510.96
-618.21
-712.85
-771.23
-774.31
-713.21
-595.18
-441.05
-275.64
-130.37
-9.90
86.52
160.64
211.72
239.30
244.35
230.54
205.24
176.82
154.89
142.39
136.69
129.96
114.91
88.70
53.64
15.55
-19.27
-44.60
-58.28
-57.66
-42.25
-12.63
29.75
82.56
143.18
208.09
273.10
331.74
377.84
406.37
415.03
404.57
377.25
335.88
282.76
220.36
152.32
86.35
33.71
6.11
11.40
47.96
104.43
162.12
200.81
205.26
170.57
102.60
14.02
-80.24
-169.03
-242.12
-289.18
-302.98
-282.27
-231.65
-159.73
-81.44
-4.73
62.82
114.85
147.26
158.64
148.75
119.72
75.77
22.00
-35.07
-89.86
-138.35
-179.65
-216.68
-254.14
-294.97
-329.68
-345.38
-329.84
-278.83
-198.55
-102.50
-5.36
82.19
155.53
214.62
262.71
300.42
325.37
335.02
328.05
304.80
266.82
215.90
151.57
73.52
-18.93
-125.43
-242.18
-360.69
-468.48
-552.11
-600.94
-610.69
-584.91
-533.61
-469.08
-401.71
-337.72
-279.24
-226.05
-177.14
-131.94
-90.20
-51.84
-16.23
17.57
50.33
82.28
113.40
143.82
174.38
206.63
241.93
280.77
322.26
364.12
403.11
435.77
459.20
471.71
473.35
466.19
454.08
441.59
432.10
426.09
420.60
410.58
391.39
361.27
322.17
278.60
235.09
193.95
154.45
114.02
70.53
24.12
-22.23
-63.79
-95.70
-114.67
-119.63
-111.81
-94.16
-70.54
-44.91
-20.19
1.97
21.11
37.34
50.60
60.17
64.64
62.69
53.81
39.05
21.02
3.55
-9.15
-13.30
-6.45
11.65
38.60
69.49
98.26
119.67
130.97
132.57
127.15
117.75
105.90
91.04
71.13
44.29
10.44
-28.14
-67.64
-104.20
-135.28
-160.59
-181.64
-201.00
-221.32
-244.51
-271.22
-300.31
-328.47
-350.19
-358.98
-349.33
-319.73
-274.78
-224.68
-181.57
-154.09
-143.31
-142.27
-140.16
-128.33
-105.29
-77.66
-56.51
-51.71
-67.38
-101.17
-146.40
-195.35
-241.31
-279.08
-304.91
-317.08
-317.73
-313.56
-313.89
-326.63
-353.49
-387.83
-416.82
-427.58
-413.93
-380.13
-338.93
-304.82
-286.65
-283.42
-285.74
-281.41
-261.98
-226.20
-179.50
-129.70
-82.37
-38.47
4.51
49.20
95.12
137.52
169.42
185.00
182.70
165.93
141.26
115.63
93.47
75.49
59.76
44.09
28.22
14.26
4.97
1.22
0.56
-1.92
-10.76
-27.22
-48.70
-70.46
-88.61
-102.17
-112.71
-121.97
-129.65
-132.84
-127.75
-112.36
-88.06
-59.00
-29.88
-3.58
19.76
41.65
63.51
85.70
107.41
127.60
145.93
162.83
179.04
194.84
209.57
221.88
230.33
233.99
232.73
227.04
217.90
206.64
194.88
184.33
176.37
171.45
168.66
165.88
160.67
151.41
138.31
123.46
109.79
99.71
93.86
90.80
87.69
81.70
71.26
56.71
40.10
24.21
11.42
2.80
-2.13
-4.94
-7.46
-10.93
-15.68
-21.18
-26.66
-31.66
-36.33
-41.26
-46.94
-53.22
-59.24
-63.88
-66.39
-67.07
-67.19
-68.39
-71.71
-76.79
-81.75
-83.86
-80.66
-70.92
-55.12
-35.11
-13.24
8.56
29.31
48.88
67.61
85.79
103.44
120.32
136.19
150.99
164.81
177.62
188.98
197.87
202.95
203.10
197.99
188.34
175.68
161.44
146.31
129.84
110.73
87.67
60.36
29.79
-1.90
-32.32
-59.56
-82.64
-101.29
-115.57
-125.51
-131.03
-132.11
-129.06
-122.44
-112.99
-101.25
-87.39
-71.26
-52.66
-31.77
-9.32
13.51
35.51
55.79
74.12
90.68
105.72
119.03
129.82
137.04
139.91
138.56
134.09
128.20
122.49
117.96
114.98
113.64
114.19
117.16
123.05
131.80
142.63
154.41
166.14
177.55
188.96
200.99
213.95
227.67
241.25
253.41
262.61
267.16
265.33
255.64
237.30
210.74
178.01
142.71
109.44
82.70
65.73
59.49
62.21
69.65
76.09
75.93
65.17
42.63
10.07
-28.33
-67.04
-100.51
-124.41
-136.40
-136.45
-126.52
-109.82
-89.75
-69.03
-49.06
-29.90
-10.54
10.38
33.63
58.52
82.39
101.11
110.14
106.12
88.18
58.28
20.52
-20.30
-60.21
-96.95
-130.19
-161.08
-191.71
-224.59
-261.86
-304.23
-349.94
-394.31
-430.69
-452.50
-455.70
-440.24
-409.82
-370.19
-326.89
-283.67
-242.13
-202.41
-164.14
-126.92
-90.28
-53.52
-15.86
22.90
61.78
98.44
129.88
153.53
168.41
175.41
176.76
174.67
170.10
162.29
149.28
129.33
102.29
70.15
36.38
4.27
-24.54
-50.44
-74.85
-98.22
-118.61
-131.60
-131.82
-115.33
-81.48
-33.67
21.48
75.57
120.30
148.77
156.41
141.59
105.89
53.85
-7.85
-72.05
-132.84
-186.78
-233.10
-272.72
-306.73
-335.29
-357.36
-371.40
-376.30
-371.84
-358.31
-335.82
-303.86
-261.59
-208.76
-146.44
-76.94
-3.21
72.05
146.75
219.11
286.96
347.26
396.31
430.75
448.98
452.07
443.68
428.93
412.63
397.36
382.30
363.47
335.22
292.67
233.81
160.91
80.61
2.81
-61.11
-100.63
-108.53
-83.20
-29.87
39.91
110.81
167.85
200.25
203.95
181.75
141.33
92.41
44.07
3.01
-27.03
-45.37
-53.96
-56.56
-57.48
-60.14
-66.10
-74.95
-84.86
-93.74
-100.38
-105.33
-110.53
-119.01
-133.92
-157.21
-188.40
-223.61
-255.36
-274.12
-271.80
-245.59
-200.29
-147.18
-99.30
-65.30
-45.18
-30.41
-8.73
29.05
84.16
149.19
211.86
260.89
290.57
301.81
299.87
290.98
279.47
266.64
251.38
231.01
201.93
159.90
101.22
24.34
-68.18
-168.74
-265.88
-347.73
-405.81
-437.57
-446.48
-439.67
-424.60
-406.67
-388.66
-371.59
-355.98
-342.20
-330.06
-318.14
-303.65
-283.28
-254.74
-218.02
-175.59
-131.59
-90.23
-54.39
-24.72
0.31
23.59
48.27
76.68
110.03
147.92
188.90
229.82
266.24
293.60
308.51
310.04
299.88
282.59
263.56
248.74
241.90
244.00
253.61
267.66
282.86
295.95
306.13
313.91
322.65
335.05
351.71
370.58
387.32
397.22
396.13
384.51
365.61
346.85
334.67
332.32
339.03
350.32
360.20
362.21
355.00
321.73
254.38
154.35
33.72
-88.90
-197.15
-272.67
-320.18
-348.06
-363.65
-368.54
-361.82
-344.39
-315.03
-273.20
-219.95
-163.97
-114.10
-80.22
-67.64
-76.27
-100.79
-133.25
-167.42
-200.07
-231.31
-259.77
-283.53
-299.14
-304.17
-298.97
-285.39
-266.40
-244.94
-223.23
-200.60
-175.43
-145.73
-110.85
-72.14
-32.50
4.30
34.90
57.54
71.49
77.61
77.02
69.62
53.52
25.99
-14.62
-67.26
-126.92
-183.93
-226.50
-245.34
-237.04
-204.88
-156.94
-102.62
-51.59
-8.21
25.70
50.41
68.31
83.63
101.41
122.05
143.89
161.42
167.59
156.42
126.27
80.48
25.75
-30.49
-82.09
-124.50
-156.48
-177.28
-186.76
-185.49
-174.81
-156.55
-132.34
-103.25
-68.99
-28.56
19.00
73.39
132.45
191.91
245.76
287.61
312.97
321.33
316.45
305.35
295.28
290.48
290.26
289.54
281.73
262.51
232.01
194.47
155.70
119.59
85.89
50.19
6.28
-50.57
-120.44
-198.22
-274.88
-340.23
-386.14
-408.94
-409.96
-394.16
-367.60
-334.78
-298.44
-260.08
-221.28
-184.34
-151.36
-122.37
-94.39
-62.07
-17.79
40.95
108.52
172.54
220.20
245.55
252.13
251.38
251.18
253.63
255.46
251.67
239.39
219.97
196.83
174.62
155.41
136.98
115.07
86.18
50.70
13.58
-17.39
-35.40
-37.61
-26.25
-7.07
14.15
33.65
50.45
65.26
78.98
91.06
98.90
98.12
83.86
53.21
7.22
-48.46
-103.53
-145.25
-162.44
-149.76
-110.27
-54.87
1.93
47.12
71.93
73.95
56.18
24.38
-15.67
-59.81
-105.68
-151.84
-197.34
-243.24
-290.42
-337.75
-380.52
-410.52
-418.56
-398.38
-350.11
-281.91
-210.81
-156.43
-134.50
-151.82
-205.04
-283.59
-374.21
-464.89
-530.86
-552.06
-517.37
-429.30
-302.93
-158.89
-16.12
111.92
218.28
301.63
362.84
404.87
431.88
448.30
458.72
465.04
466.57
461.42
448.19
425.32
392.39
350.30
301.13
247.01
188.55
124.43
51.79
-32.22
-125.57
-222.22
-311.93
-382.29
-422.78
-428.83
-403.16
-354.29
-292.55
-226.34
-159.86
-93.09
-23.77
49.97
128.04
208.37
286.90
358.11
415.02
449.90
456.27
431.29
377.58
303.02
218.48
133.06
51.93
-23.18
-91.20
-148.47
-188.03
-202.19
-186.78
-144.08
-84.49
-22.60
27.95
58.09
64.29
47.75
12.43
-35.30
-86.38
-132.87
-169.73
-197.55
-223.30
-257.33
-308.29
-378.52
-462.03
-537.81
-583.31
-582.38
-533.42
-449.90
-351.97
-256.91
-175.48
-114.68
-71.84
-45.38
-33.51
-32.32
-35.34
-34.99
-24.72
-3.63
25.18
56.66
84.01
102.57
110.72
109.68
102.63
93.42
85.19
80.17
79.68
82.32
85.37
85.49
80.03
67.86
50.12
29.33
8.95
-7.56
-18.32
-22.77
-21.69
-16.67
-9.33
-0.75
8.72
19.63
33.08
49.81
69.89
92.57
116.38
139.62
160.93
179.24
193.95
204.87
212.25
217.16
221.41
227.12
235.58
246.28
256.42
261.85
258.88
246.15
225.72
202.59
182.94
171.87
171.71
181.43
197.38
214.75
228.81
236.04
234.67
224.76
207.85
186.33
162.59
138.29
114.39
91.31
69.57
50.13
33.89
21.30
12.31
6.87
5.70
10.39
22.35
41.16
63.41
82.97
93.24
89.99
73.24
47.05
17.57
-9.86
-32.32
-49.30
-61.56
-69.66
-73.68
-73.99
-72.19
-71.29
-74.78
-84.77
-100.30
-117.04
-128.04
-126.19
-107.00
-70.41
-21.24
32.19
80.65
116.72
136.69
140.94
132.81
116.65
96.05
72.96
48.13
22.29
-2.90
-25.01
-41.87
-53.14
-61.07
-69.76
-83.19
-103.07
-127.58
-152.05
-171.07
-180.97
-181.43
-175.43
-167.66
-162.36
-161.52
-164.35
-168.22
-170.31
-169.11
-164.99
-159.53
-154.28
-149.65
-144.68
-137.76
-127.76
-114.81
-100.17
-85.41
-71.30
-57.30
-41.81
-23.21
-0.95
23.89
49.07
72.26
92.11
108.86
123.90
138.89
154.89
171.76
188.39
203.50
216.28
226.53
234.38
239.45
240.75
237.12
227.66
212.23
191.67
167.51
141.80
117.10
95.78
80.33
73.30
76.16
88.27
106.35
124.80
137.02
137.90
124.48
97.46
61.10
20.95
-18.45
-55.00
-89.03
-122.01
-154.09
-184.58
-211.41
-229.09
-232.04
-217.53
-187.30
-147.09
-107.88
-73.07
-42.42
-14.73
10.37
32.89
51.00
62.83
67.78
67.01
63.59
60.16
58.59
59.76
63.32
67.99
72.42
75.83
78.34
81.17
85.13
90.49
97.17
104.45
111.04
115.59
117.02
114.76
109.20
100.80
90.13
77.91
64.66
50.43
34.98
17.84
-1.35
-22.49
-45.24
-69.00
-93.17
-117.38
-141.71
-166.53
-192.16
-218.80
-246.64
-276.41
-309.58
-347.52
-389.91
-433.22
-470.39
-492.53
-492.18
-466.48
-418.48
-355.62
-286.48
-217.78
-153.51
-96.51
-50.60
-21.43
-15.02
-34.56
-78.09
-138.58
-206.79
-274.97
-338.76
-396.42
-446.17
-483.90
-503.37
-498.78
-468.34
-416.22
-351.57
-285.20
-225.69
-177.15
-139.19
-108.93
-83.30
-60.39
-39.47
-20.11
-1.34
18.39
40.54
65.58
92.44
118.75
141.94
160.46
174.35
185.06
194.30
203.15
211.67
219.26
225.60
231.16
237.12
244.84
255.18
268.43
284.41
302.49
321.28
338.14
349.08
349.56
336.21
308.50
269.38
224.54
180.60
143.05
114.91
96.64
86.91
83.62
84.62
87.92
91.84
95.41
99.03
104.85
116.36
137.23
169.79
213.40
264.15
315.64
360.93
394.87
415.32
422.93
419.66
407.22
386.16
356.28
317.64
271.54
221.24
171.23
125.59
86.22
52.36
21.26
-10.33
-44.78
-82.94
-123.47
-163.82
-201.41
-234.80
-263.90
-289.21
-311.11
-329.67
-345.11
-357.25
-365.40
-368.05
-362.68
-346.00
-315.06
-269.13
-210.46
-148.95
-99.27
-74.30
-78.35
-106.13
-147.31
-191.96
-233.76
-270.21
-302.04
-328.40
-346.68
-353.84
-348.57
-332.11
-307.53
-278.46
-247.39
-216.32
-185.56
-154.42
-122.25
-89.51
-58.02
-30.15
-7.86
8.15
18.46
25.26
31.22
38.51
47.94
58.88
69.99
80.06
88.68
96.28
104.10
113.47
125.07
138.75
153.68
168.97
184.22
199.71
216.32
235.39
258.33
286.07
318.51
353.83
388.37
416.99
434.50
437.30
424.80
399.65
366.65
330.83
295.74
262.69
231.26
200.59
170.48
141.78
115.96
94.34
77.37
64.65
55.22
47.92
41.67
35.63
29.19
22.01
14.10
5.74
-2.58
-10.44
-17.59
-23.96
-29.47
-33.95
-37.16
-39.05
-39.97
-40.67
-42.06
-44.81
-48.97
-53.90
-58.54
-61.84
-63.23
-62.81
-61.29
-59.66
-58.88
-59.53
-61.62
-64.63
-67.76
-70.21
-71.53
-71.79
-71.45
-71.02
-70.77
-70.51
-69.75
-67.89
-64.67
-60.27
-55.32
-50.60
-46.68
-43.71
-41.38
-39.12
-36.38
-32.84
-28.50
-23.65
-18.69
-13.92
-9.54
-5.64
-2.31
0.28
1.85
2.13
0.95
-1.59
-5.14
-9.16
-13.20
-17.05
-20.76
-24.50
-28.35
-32.13
-35.48
-38.12
-40.08
-41.70
-43.37
-45.14
-46.44
-46.19
-43.27
-37.25
-28.78
-19.55
-11.49
-5.82
-2.44
0.07
3.58
9.37
17.31
25.89
32.92
36.62
36.52
33.67
30.34
29.14
32.15
40.26
53.00
68.62
84.65
98.37
107.29
109.61
104.42
92.00
73.64
51.36
27.39
3.49
-19.40
-41.08
-61.67
-80.90
-97.87
-111.38
-120.55
-125.66
-128.33
-130.90
-135.57
-143.48
-154.24
-166.18
-176.93
-183.96
-185.20
-179.49
-167.01
-149.31
-128.92
-108.51
-90.07
-74.44
-61.77
-52.24
-46.75
-46.70
-53.06
-65.04
-79.73
-92.71
-99.76
-98.63
-89.71
-75.47
-58.90
-42.21
-26.27
-11.26
2.40
13.60
20.81
23.10
21.13
17.36
15.21
17.46
24.99
36.31
48.34
57.88
63.10
64.24
63.20
62.43
63.74
67.50
72.71
77.51
80.02
79.05
74.27
66.03
55.07
42.09
27.58
11.89
-4.58
-21.32
-37.44
-51.73
-62.79
-69.29
-70.27
-65.18
-53.76
-35.80
-11.20
19.67
55.39
93.12
129.01
159.21
181.16
194.40
200.41
201.48
199.38
194.49
185.99
172.73
154.19
131.05
104.89
77.53
50.48
24.72
0.86
-20.60
-39.15
-54.35
-65.91
-73.90
-78.64
-80.54
-79.95
-77.20
-72.62
-66.85
-60.84
-55.76
-52.58
-51.66
-52.64
-54.54
-56.18
-56.68
-55.68
-53.29
-49.88
-45.86
-41.48
-36.87
-32.04
-26.80
-20.70
-12.98
-2.76
10.71
27.69
47.74
69.70
91.70
111.44
126.39
134.19
133.06
122.30
102.56
75.99
45.84
15.77
-10.95
-32.13
-46.93
-55.72
-59.59
-59.87
-57.70
-53.98
-49.45
-44.73
-40.38
-36.77
-34.04
-32.06
-30.56
-29.30
-28.23
-27.53
-27.55
-28.67
-31.16
-35.04
-40.12
-46.02
-52.20
-58.05
-62.90
-66.08
-67.06
-65.53
-61.51
-55.37
-47.71
-39.25
-30.65
-22.41
-14.81
-7.94
-1.70
4.04
9.41
14.43
18.94
22.69
25.51
27.39
28.54
29.27
29.82
30.28
30.54
30.58
30.52
30.75
31.70
33.70
36.72
40.38
44.18
47.56
49.96
50.72
48.97
43.68
34.05
19.87
1.90
-18.22
-38.34
-56.35
-70.64
-80.27
-84.95
-84.90
-80.72
-73.39
-64.13
-54.32
-45.18
-37.55
-31.74
-27.58
-24.67
-22.66
-21.50
-21.41
-22.80
-25.82
-30.13
-34.80
-38.54
-40.23
-39.39
-36.38
-32.22
-28.06
-24.54
-21.60
-18.56
-14.68
-9.64
-3.77
2.07
6.99
10.48
12.69
14.28
16.09
18.71
22.24
26.18
29.73
32.05
32.61
31.42
29.08
26.85
26.28
28.78
35.13
45.08
57.27
69.42
78.93
83.62
82.27
74.80
61.83
44.29
23.00
-1.24
-27.37
-53.76
-78.07
-97.49
-109.14
-110.90
-101.90
-82.78
-55.47
-22.65
13.06
49.65
85.91
121.32
155.03
185.56
210.91
229.60
241.56
248.34
252.24
255.19
258.07
260.08
259.71
255.85
248.66
239.40
229.20
217.70
202.91
182.37
154.02
117.47
74.35
27.86
-18.40
-61.53
-100.39
-137.40
-173.03
-206.05
-233.70
-253.05
-262.19
-260.78
-249.48
-230.04
-204.65
-175.24
-143.98
-112.78
-83.00
-55.19
-29.33
-4.33
19.57
40.84
57.24
66.26
65.67
53.92
30.29
-6.36
-52.51
-101.77
-145.48
-174.50
-182.44
-168.35
-137.51
-99.49
-64.50
-39.54
-27.16
-25.51
-30.46
-37.98
-45.52
-52.15
-56.50
-56.50
-49.95
-36.07
-15.76
8.62
34.25
58.61
80.53
100.50
120.08
141.30
165.19
190.89
215.26
233.42
240.20
232.29
209.97
177.11
139.95
104.64
75.12
52.33
35.50
22.77
12.64
4.75
-0.40
-2.36
-1.54
0.69
2.56
2.82
1.17
-1.53
-3.83
-4.63
-3.81
-2.35
-1.80
-3.44
-7.71
-14.00
-20.91
-26.86
-30.72
-32.15
-31.62
-30.05
-28.42
-27.42
-27.34
-28.03
-29.03
-29.71
-29.49
-27.97
-25.04
-20.80
-15.61
-9.90
-4.15
1.21
5.81
9.25
11.13
11.20
9.44
6.22
2.26
-1.49
-4.15
-5.12
-4.23
-1.65
2.29
7.26
12.99
19.34
26.10
32.88
39.02
43.57
45.52
44.00
38.58
29.37
16.73
0.88
-18.46
-41.72
-68.93
-99.16
-130.51
-160.69
-187.95
-211.58
-231.63
-247.81
-258.60
-261.10
-252.11
-229.91
-195.25
-151.30
-102.60
-53.66
-8.09
31.24
61.86
81.65
88.93
83.97
69.58
50.53
31.96
17.54
8.52
3.97
1.76
-1.52
-8.95
-22.82
-44.08
-71.70
-102.29
-130.34
-149.45
-154.65
-146.92
-132.14
-119.31
-116.53
-127.11
-148.12
-172.12
-191.19
-200.74
-204.21
-209.12
-223.18
-250.33
-289.32
-335.52
-384.13
-432.57
-464.32
-466.94
-432.05
-359.28
-257.32
-140.14
-21.73
87.50
181.64
258.97
317.53
356.93
378.33
384.54
380.37
371.50
363.13
358.44
359.84
363.76
364.73
357.64
339.04
307.72
264.23
210.21
147.34
82.07
21.76
-26.17
-56.34
-67.79
-64.47
-53.62
-42.60
-35.57
-33.02
-31.62
-27.84
-19.51
-6.92
8.22
24.17
40.06
55.93
71.80
86.32
94.90
94.18
82.20
59.32
28.43
-5.87
-37.82
-63.76
-81.57
-91.08
-93.34
-90.27
-83.95
-75.54
-65.27
-52.73
-37.35
-18.54
3.98
30.51
61.02
93.36
124.72
151.44
169.79
177.05
172.77
158.84
139.04
117.34
96.62
78.35
62.67
49.17
37.67
28.48
21.99
18.21
16.41
15.31
13.82
11.29
7.72
3.69
0.04
-2.51
-3.58
-3.29
-2.12
-0.52
1.13
2.69
4.33
6.45
9.40
13.37
18.21
23.49
28.72
33.35
37.03
39.57
40.95
41.14
40.05
37.50
33.32
27.54
20.46
12.77
5.35
-0.90
-5.41
-8.12
-9.52
-10.43
-11.68
-13.80
-16.82
-20.38
-23.92
-27.00
-29.45
-31.38
-33.08
-34.84
-36.93
-39.56
-42.94
-47.11
-51.89
-56.73
-60.74
-63.01
-62.93
-60.41
-55.95
-50.36
-44.44
-38.76
-33.60
-29.04
-25.21
-22.29
-20.53
-20.00
-20.50
-21.61
-22.82
-23.75
-24.38
-24.97
-25.92
-27.50
-29.64
-31.91
-33.67
-34.34
-33.65
-31.67
-28.85
-25.74
-22.86
-20.49
-18.68
-17.20
-15.62
-13.49
-10.45
-6.29
-1.03
5.23
12.27
19.85
27.65
35.20
41.92
47.17
50.57
52.06
51.99
50.96
49.58
48.24
47.04
45.92
44.74
43.46
41.99
40.20
37.85
34.78
31.11
27.30
24.04
21.82
20.60
19.69
18.01
14.73
9.71
3.66
-2.17
-6.56
-8.78
-8.79
-7.01
-4.00
-0.11
4.49
9.67
15.09
20.13
23.96
25.76
25.08
21.93
16.87
10.76
4.48
-1.27
-6.07
-9.78
-12.45
-14.17
-15.09
-15.34
-15.13
-14.63
-14.04
-13.47
-13.04
-12.81
-12.86
-13.27
-14.04
-15.03
-15.94
-16.35
-15.79
-13.88
-10.45
-5.55
0.44
7.03
13.69
20.00
25.63
30.30
33.76
35.72
36.00
34.62
31.91
28.43
24.76
21.25
17.88
14.33
10.15
4.99
-1.23
-8.29
-15.81
-23.36
-30.63
-37.48
-43.97
-50.27
-56.51
-62.67
-68.39
-73.03
-75.77
-75.94
-73.31
-68.28
-61.68
-54.57
-47.83
-41.92
-36.94
-32.73
-29.16
-26.21
-24.08
-22.94
-22.81
-23.44
-24.25
-24.57
-23.78
-21.50
-17.70
-12.65
-6.83
-0.70
5.45
11.51
17.44
23.05
27.85
31.11
32.00
29.99
25.05
17.87
9.67
1.85
-4.33
-8.26
-10.02
-10.28
-9.89
-9.41
-8.83
-7.62
-5.03
-0.66
5.14
11.10
15.48
16.78
14.39
8.94
2.03
-4.53
-9.60
-13.24
-16.55
-21.19
-28.54
-39.04
-51.86
-65.06
-75.67
-80.03
-74.40
-56.05
-24.62
17.16
63.76
107.99
143.10
164.73
172.01
167.34
154.91
138.54
120.23
99.91
76.69
50.68
24.02
0.33
-17.33
-28.86
-38.18
-51.96
-76.57
-114.63
-162.82
-212.42
-252.26
-272.09
-265.46
-231.24
-173.53
-100.77
-23.97
45.66
99.25
132.12
144.59
140.89
127.20
109.49
92.25
78.20
68.80
64.63
65.41
69.87
75.63
79.86
80.23
75.91
67.97
58.96
51.77
48.50
49.71
54.44
60.72
66.46
70.15
71.41
70.92
70.05
70.19
72.10
75.67
79.95
83.69
85.85
86.11
84.90
83.13
81.60
80.61
79.63
77.47
72.76
64.46
52.42
37.60
21.88
7.40
-4.07
-11.84
-16.35
-18.89
-21.00
-23.93
-28.50
-34.98
-42.94
-50.72
-55.16
-51.92
-36.79
-7.60
34.35
84.09
134.66
179.59
215.11
240.54
256.99
265.26
264.57
253.02
229.20
193.77
149.65
100.83
50.14
-1.83
-55.95
-112.46
-168.99
-220.59
-261.41
-287.60
-299.00
-298.63
-290.58
-277.84
-261.44
-241.22
-217.54
-192.35
-169.44
-153.06
-146.37
-150.14
-162.42
-179.53
-197.21
-212.33
-223.91
-233.21
-242.47
-253.06
-263.81
-271.27
-271.83
-263.90
-249.07
-231.01
-213.05
-196.57
-181.12
-166.83
-156.54
-155.87
-170.08
-200.03
-239.47
-276.20
-297.12
-294.00
-267.36
-225.86
-181.98
-146.37
-124.12
-113.85
-109.75
-105.20
-95.50
-78.89
-55.87
-27.59
5.55
43.63
86.34
131.88
176.42
215.16
244.39
263.37
275.25
285.59
299.74
320.11
344.84
368.43
384.38
388.02
378.42
358.48
333.30
308.05
285.96
267.57
251.17
234.41
215.74
195.25
174.42
155.11
138.37
124.02
110.83
97.42
82.96
67.46
51.44
35.41
19.53
3.68
-12.06
-27.16
-40.52
-51.02
-58.10
-62.16
-64.18
-64.96
-64.28
-60.70
-52.20
-37.49
-17.20
5.81
27.13
42.26
48.11
43.71
30.06
9.23
-16.48
-45.13
-75.10
-104.79
-132.34
-155.71
-173.05
-183.13
-185.85
-182.19
-173.89
-162.89
-150.65
-137.93
-124.82
-111.13
-97.00
-83.12
-70.62
-60.41
-52.36
-44.95
-35.63
-21.75
-1.82
23.84
53.09
82.71
109.43
130.78
145.53
153.57
155.52
152.22
144.52
133.19
119.12
103.40
87.32
72.21
59.04
47.97
38.27
28.67
18.06
6.14
-6.42
-18.32
-28.28
-35.46
-39.57
-40.71
-39.22
-35.76
-31.39
-27.43
-25.10
-24.95
-26.50
-28.34
-28.65
-25.85
-19.11
-8.47
5.31
21.09
37.53
53.32
67.31
78.62
86.70
91.31
92.43
90.16
84.89
77.23
68.07
58.34
48.73
39.47
30.38
21.05
11.24
1.12
-8.68
-17.40
-24.35
-29.26
-32.30
-33.97
-34.77
-35.11
-35.18
-35.05
-34.80
-34.40
-33.57
-31.63
-27.55
-20.31
-9.34
5.01
21.41
37.90
52.58
64.12
72.16
77.14
80.06
81.97
83.71
85.71
88.02
90.54
93.18
96.02
99.28
103.32
108.44
114.73
121.91
129.22
135.48
139.42
140.24
138.21
135.23
134.75
140.74
156.02
180.60
210.90
240.50
262.03
269.50
259.99
233.98
194.43
145.28
90.19
32.15
-25.98
-81.10
-129.76
-168.84
-196.25
-211.27
-214.17
-205.60
-186.43
-158.31
-125.07
-93.17
-70.37
-62.57
-70.73
-89.41
-108.79
-119.47
-117.04
-104.59
-90.83
-85.06
-92.50
-112.39
-139.68
-169.14
-198.30
-227.47
-257.62
-287.62
-313.14
-328.56
-330.22
-318.76
-298.79
-276.08
-253.57
-229.69
-199.40
-157.93
-104.89
-45.61
10.69
54.92
82.18
93.64
94.37
89.59
81.15
66.34
39.97
-1.85
-59.44
-129.28
-205.46
-281.60
-351.39
-408.39
-446.23
-459.70
-446.34
-408.21
-351.68
-285.18
-216.29
-149.76
-87.52
-30.54
19.54
59.95
87.92
102.41
105.18
100.54
94.23
91.86
97.85
114.75
142.62
178.82
218.33
255.14
283.78
301.09
306.94
303.69
294.85
283.48
271.00
257.23
241.08
221.56
198.60
173.22
147.01
121.37
97.08
74.19
52.54
32.26
14.03
-1.15
-12.49
-19.94
-24.40
-27.48
-31.05
-36.56
-44.65
-55.01
-66.71
-78.50
-89.25
-98.21
-105.07
-109.79
-112.37
-112.45
-109.20
-101.52
-88.47
-69.76
-46.04
-18.79
10.11
38.88
66.22
91.41
114.19
134.57
152.55
168.05
180.69
189.70
193.91
192.02
183.04
166.86
144.45
117.62
88.34
57.94
26.81
-5.38
-38.82
-72.75
-105.07
-132.85
-153.50
-165.75
-170.18
-168.68
-163.38
-155.53
-145.17
-131.43
-113.50
-91.41
-66.34
-40.39
-15.86
5.48
22.75
35.97
45.82
53.11
58.47
62.20
64.28
64.67
63.55
61.47
59.29
57.81
57.45
58.06
59.03
59.55
58.89
56.61
52.58
46.89
39.74
31.41
22.12
12.11
1.48
-9.78
-21.63
-33.73
-45.21
-54.71
-60.86
-62.82
-60.81
-56.03
-50.11
-44.29
-38.79
-32.84
-25.17
-14.92
-2.06
12.51
27.47
41.65
54.33
65.19
74.09
80.73
84.79
86.00
84.47
80.72
75.56
69.79
64.00
58.46
53.19
48.12
43.16
38.34
33.78
29.67
26.21
23.52
21.53
19.90
18.06
15.39
11.43
6.20
0.22
-5.53
-9.96
-12.30
-12.36
-10.54
-7.65
-4.53
-1.69
0.74
2.97
5.28
7.81
10.43
12.82
14.54
15.28
14.91
13.48
11.25
8.52
5.62
2.84
0.46
-1.28
-2.20
-2.19
-1.36
-0.03
1.32
2.16
2.11
1.04
-0.88
-3.30
-5.84
-8.25
-10.42
-12.37
-14.09
-15.41
-16.07
-15.78
-14.37
-11.94
-8.83
-5.50
-2.33
0.50
3.06
5.50
7.95
10.39
12.64
14.51
15.86
16.68
17.04
17.05
16.76
16.23
15.45
14.49
13.48
12.53
11.74
11.15
10.74
10.44
10.16
9.80
9.22
8.34
7.14
5.65
3.94
2.06
0.02
-2.18
-4.46
-6.55
-8.04
-8.50
-7.70
-5.69
-2.89
0.14
2.94
5.23
7.02
8.44
9.60
10.55
11.23
11.55
11.48
11.11
10.55
9.87
9.15
8.37
7.53
6.65
5.77
4.93
4.11
3.25
2.23
0.98
-0.56
-2.38
-4.35
-6.28
-7.98
-9.28
-10.15
-10.67
-11.04
-11.47
-12.07
-12.71
-13.07
-12.70
-11.28
-8.76
-5.39
-1.70
1.71
4.41
6.25
7.33
7.89
8.21
8.40
8.50
8.49
8.34
8.11
7.91
7.84
7.91
8.00
7.93
7.50
6.63
5.37
3.90
2.44
1.13
0.05
-0.82
-1.55
-2.19
-2.75
-3.29
-3.86
-4.62
-5.65
-6.93
-8.25
-9.27
-9.62
-9.09
-7.70
-5.68
-3.38
-1.08
1.04
2.96
4.60
5.91
6.80
7.25
7.34
7.26
7.21
7.31
7.55
7.84
8.07
8.25
8.45
8.75
9.13
9.46
9.55
9.19
8.29
6.89
5.17
3.35
1.66
0.20
-1.05
-2.24
-3.51
-4.92
-6.37
-7.57
-8.17
-7.85
-6.55
-4.41
-1.78
0.93
3.38
5.37
6.78
7.57
7.78
7.51
6.95
6.34
5.92
5.86
6.18
6.73
7.26
7.57
7.46
6.90
5.91
4.61
3.12
1.55
-0.01
-1.47
-2.77
-3.80
-4.52
-4.92
-5.08
-5.06
-4.90
-4.53
-3.74
-2.31
-0.05
3.03
6.68
10.53
14.15
17.23
19.61
21.33
22.52
23.36
24.06
24.79
25.73
26.98
28.53
30.18
31.63
32.53
32.67
31.97
30.61
28.86
26.99
25.16
23.39
21.46
18.98
15.48
10.61
4.23
-3.42
-11.77
-20.10
-27.74
-34.26
-39.51
-43.49
-46.13
-47.24
-46.53
-43.76
-38.87
-32.11
-24.01
-15.22
-6.44
1.78
9.19
15.92
22.52
29.92
39.23
51.47
67.20
86.31
107.92
130.52
152.13
170.59
183.83
190.23
188.97
180.25
165.40
146.57
126.24
106.53
88.81
73.53
60.52
49.32
39.57
31.05
23.60
16.90
10.49
3.99
-2.72
-9.44
-15.84
-21.64
-26.72
-30.84
-33.41
-33.57
-30.65
-25.10
-18.74
-14.20
-13.34
-16.03
-19.77
-20.69
-15.31
-2.09
18.01
42.22
67.01
88.67
103.39
107.17
96.34
68.73
25.21
-29.95
-90.16
-148.90
-201.95
-248.33
-289.42
-327.26
-362.74
-394.61
-419.64
-433.73
-433.42
-417.30
-386.35
-343.43
-292.38
-236.72
-178.93
-120.39
-61.89
-4.36
50.88
102.43
148.98
189.51
222.90
247.47
260.96
261.26
247.85
222.82
191.26
160.11
136.05
123.55
123.53
133.48
148.90
165.14
178.96
189.09
195.63
198.96
198.89
194.33
183.90
167.11
144.86
119.45
93.90
70.91
52.38
39.18
31.25
27.93
28.24
30.94
34.55
37.41
37.88
34.65
27.18
15.92
2.31
-11.54
-23.46
-31.80
-35.98
-36.60
-35.15
-33.40
-32.83
-34.06
-36.79
-40.09
-42.95
-44.72
-45.22
-44.55
-42.85
-40.34
-37.25
-34.04
-31.54
-30.68
-31.95
-34.85
-37.80
-38.53
-35.49
-28.29
-18.17
-7.61
0.72
4.99
4.81
1.10
-4.60
-11.62
-19.95
-30.37
-44.04
-62.13
-85.56
-114.88
-149.73
-188.19
-227.37
-263.09
-291.40
-310.39
-321.14
-327.41
-334.16
-345.44
-356.79
-362.07
-354.35
-329.16
-286.89
-232.41
-172.33
-112.18
-55.24
-3.01
42.87
80.91
109.64
128.26
137.21
138.50
135.27
131.04
128.74
129.37
132.64
137.16
141.13
143.03
142.17
138.39
131.82
122.97
110.80
94.37
73.13
47.55
19.19
-9.16
-34.23
-52.13
-60.92
-60.84
-53.50
-41.23
-26.26
-10.26
6.32
23.64
41.92
60.70
78.72
94.44
106.26
113.85
116.68
115.05
109.40
99.91
85.98
66.65
41.46
10.51
-24.34
-61.28
-98.09
-131.92
-158.76
-173.93
-173.35
-155.42
-122.90
-82.62
-43.50
-13.00
5.37
12.52
12.09
7.88
2.06
-5.25
-14.72
-26.24
-38.00
-47.21
-51.62
-50.79
-46.57
-41.27
-37.07
-34.62
-32.78
-29.10
-21.10
-7.58
10.54
30.64
49.37
64.08
73.93
79.98
84.66
90.63
99.72
112.40
127.55
142.39
152.85
154.38
142.96
116.71
77.09
29.79
-16.35
-51.85
-70.23
-70.62
-58.09
-41.40
-29.09
-26.09
-31.82
-41.69
-50.60
-56.12
-59.66
-65.17
-76.43
-94.62
-118.28
-143.99
-168.52
-189.98
-207.79
-221.46
-229.94
-231.74
-223.67
-206.17
-183.23
-160.82
-144.23
-135.41
-132.19
-129.84
-124.20
-114.09
-102.36
-93.59
-91.02
-94.30
-99.37
-100.22
-91.63
-71.16
-39.62
-0.19
43.72
89.69
136.39
182.96
228.61
272.50
313.98
352.72
388.01
418.35
441.04
452.54
449.74
431.48
399.37
357.48
311.16
265.20
222.83
185.57
153.74
127.35
106.44
90.81
79.58
71.07
63.04
53.52
41.43
26.95
11.21
-4.33
-18.54
-30.94
-41.51
-50.49
-57.96
-63.84
-68.03
-70.56
-71.66
-71.69
-70.92
-69.65
-68.20
-67.05
-66.78
-67.69
-69.68
-72.15
-74.31
-75.69
-76.44
-77.28
-79.06
-82.33
-86.98
-92.27
-97.10
-100.23
-100.70
-97.83
-91.31
-81.26
-68.20
-53.06
-37.08
-21.52
-7.39
4.79
15.03
23.69
31.19
37.79
43.49
48.00
50.98
52.15
51.41
48.94
45.06
40.11
34.45
28.38
22.09
15.75
9.54
3.58
-2.03
-7.42
-12.90
-18.75
-25.10
-31.56
-37.29
-41.27
-42.73
-41.55
-38.42
-34.58
-31.30
-29.43
-29.19
-30.27
-32.04
-33.81
-34.89
-34.79
-33.17
-29.99
-25.55
-20.49
-15.55
-11.36
-8.25
-6.09
-4.33
-2.21
0.95
5.43
10.96
16.79
21.99
25.89
28.42
30.00
31.23
32.41
33.23
33.09
31.43
28.22
24.03
19.69
15.76
12.29
8.74
4.52
-0.56
-6.14
-11.44
-15.75
-18.78
-20.76
-22.21
-23.53
-24.74
-25.51
-25.39
-24.17
-22.06
-19.66
-17.76
-17.08
-18.04
-20.66
-24.48
-28.67
-32.15
-33.83
-33.05
-29.74
-24.51
-18.38
-12.47
-7.49
-3.73
-0.94
1.43
4.01
7.25
11.30
15.94
20.60
24.63
27.43
28.72
28.63
27.56
25.99
24.25
22.48
20.62
18.58
16.27
13.61
10.58
7.23
3.72
0.41
-2.29
-4.06
-4.82
-4.86
-4.64
-4.64
-5.12
-6.12
-7.49
-9.09
-10.82
-12.65
-14.53
-16.35
-17.96
-19.35
-20.66
-22.03
-23.46
-24.54
-24.57
-22.76
-18.66
-12.42
-4.75
3.33
10.95
17.63
23.35
28.28
32.53
35.94
38.19
38.97
38.23
36.24
33.55
30.72
28.17
26.03
24.10
22.02
19.45
16.24
12.53
8.66
5.01
1.78
-1.09
-3.97
-7.26
-11.21
-15.80
-20.76
-25.70
-30.42
-34.95
-39.55
-44.46
-49.73
-55.16
-60.41
-65.18
-69.32
-72.81
-75.57
-77.32
-77.56
-75.77
-71.65
-65.34
-57.35
-48.33
-38.78
-29.08
-19.43
-10.04
-1.28
6.44
12.49
16.58
18.84
19.84
20.25
20.66
21.20
21.58
21.12
18.37
12.07
1.54
-12.90
-30.09
-48.22
-65.36
-79.91
-90.99
-99.33
-106.07
-112.25
-118.10
-123.13
-126.24
-126.40
-123.14
-116.87
-110.09
-105.59
-105.36
-109.80
-118.02
-128.86
-141.98
-158.14
-171.05
-175.77
-168.13
-146.35
-112.13
-70.96
-30.76
0.43
17.08
17.98
5.15
-16.50
-42.79
-69.52
-93.75
-113.31
-125.93
-129.07
-120.24
-98.80
-65.40
-21.74
30.15
88.59
151.18
215.62
279.97
342.36
399.84
448.82
485.35
506.14
509.13
494.10
462.95
419.11
366.79
309.87
251.95
196.32
146.13
104.05
71.85
49.99
37.15
30.34
25.36
17.97
4.81
-15.88
-44.04
-78.05
-115.17
-152.18
-185.88
-213.60
-233.25
-243.54
-243.81
-234.02
-214.82
-187.55
-154.27
-117.60
-80.28
-44.95
-13.96
10.67
27.32
35.19
34.80
28.40
19.74
13.17
12.26
18.50
30.87
46.19
60.34
69.59
71.73
66.40
55.02
40.07
24.14
9.11
-4.41
-16.75
-28.59
-40.20
-51.11
-60.39
-67.41
-72.39
-76.36
-80.49
-85.18
-89.48
-91.42
-88.96
-81.08
-68.52
-53.54
-38.84
-26.28
-16.19
-7.33
2.13
13.51
26.82
40.60
52.58
60.83
64.66
64.98
63.82
63.33
64.68
67.59
70.56
71.69
69.91
65.55
60.22
55.97
54.01
53.97
54.15
52.42
47.59
40.18
32.19
26.05
23.20
23.19
23.73
22.00
16.12
6.19
-5.78
-17.00
-25.42
-30.71
-34.18
-37.85
-43.00
-49.39
-55.39
-58.95
-59.11
-56.69
-54.02
-53.44
-55.95
-60.28
-63.56
-62.95
-57.43
-48.46
-39.22
-32.54
-29.09
-26.78
-21.79
-10.69
7.59
31.20
56.16
78.13
94.00
102.79
105.37
103.72
100.13
96.32
93.24
91.09
89.51
87.85
85.21
80.50
72.51
60.34
43.80
24.29
5.02
-9.71
-16.21
-13.45
-4.22
5.72
10.21
5.80
-5.91
-18.64
-23.94
-15.00
10.20
48.28
92.36
135.44
173.17
205.08
233.25
259.89
285.12
305.99
318.08
318.03
305.72
284.48
259.68
235.99
215.31
196.36
174.96
146.83
109.82
65.02
16.02
-32.48
-76.53
-113.74
-143.06
-165.67
-183.12
-196.61
-206.56
-213.07
-216.37
-217.57
-218.68
-222.13
-232.05
-252.24
-285.11
-330.71
-386.88
-449.65
-514.37
-576.54
-620.46
-631.99
-602.06
-531.66
-431.92
-319.33
-208.46
-108.25
-22.00
50.48
109.23
154.05
184.86
203.19
210.37
207.81
196.78
178.13
152.97
122.24
88.48
55.38
29.38
14.71
10.69
11.81
10.41
0.79
-19.08
-46.99
-78.59
-109.38
-137.08
-161.90
-183.57
-200.92
-212.20
-216.45
-214.05
-206.89
-197.09
-186.99
-177.79
-169.07
-159.35
-146.67
-129.43
-106.67
-80.52
-53.22
-27.26
-4.57
13.91
27.99
38.13
45.08
49.68
52.71
55.28
58.35
62.86
69.73
79.63
92.99
109.86
129.99
152.74
177.41
203.01
228.65
253.62
277.34
299.09
317.68
331.45
338.65
338.13
329.76
314.47
293.85
269.51
242.56
213.64
183.23
152.31
122.64
96.55
76.21
62.85
56.31
55.03
56.62
58.63
59.30
57.99
54.97
50.99
46.65
42.02
36.54
29.30
19.61
7.36
-6.79
-21.63
-35.88
-48.77
-60.22
-70.82
-81.46
-92.72
-104.44
-115.62
-124.84
-130.98
-134.00
-135.16
-136.73
-141.14
-149.99
-163.43
-180.11
-197.62
-213.23
-224.28
-228.37
-223.46
-208.17
-182.20
-146.83
-104.89
-60.24
-17.01
21.41
52.77
76.11
91.47
99.65
101.91
99.85
95.18
89.47
83.88
79.13
75.46
72.85
71.00
69.57
68.23
66.87
65.65
64.92
64.94
65.63
66.51
66.93
66.32
64.41
61.31
57.25
52.53
47.37
41.98
36.67
31.83
27.80
24.75
22.57
20.94
19.43
17.67
15.44
12.81
9.99
7.37
5.34
4.21
4.12
4.95
6.43
8.17
9.87
11.51
13.39
16.06
20.13
25.97
33.57
42.55
52.35
62.54
72.97
83.68
94.58
105.13
114.31
120.81
123.62
122.47
118.00
111.35
103.49
94.68
84.26
71.12
54.19
32.94
7.37
-22.08
-54.55
-88.43
-120.93
-148.14
-165.84
-171.16
-164.05
-147.76
-127.61
-108.66
-93.37
-80.74
-67.40
-50.12
-28.14
-3.93
17.90
32.97
39.19
37.41
30.62
22.10
14.21
7.91
3.47
1.21
1.79
5.72
12.63
20.83
27.55
29.83
25.50
13.78
-4.71
-28.25
-54.46
-80.49
-103.41
-120.42
-129.48
-129.62
-120.96
-104.05
-79.53
-48.15
-10.74
31.26
75.82
120.46
162.67
200.07
230.50
251.77
261.81
259.13
243.49
216.32
180.54
139.74
97.28
55.70
16.71
-18.47
-48.64
-72.50
-88.76
-96.31
-94.65
-84.25
-66.96
-45.96
-25.11
-7.93
3.16
7.51
5.88
-0.64
-11.28
-25.85
-44.06
-64.64
-85.10
-102.51
-114.75
-121.39
-123.64
-123.25
-121.27
-117.34
-110.06
-98.24
-81.85
-62.37
-42.14
-23.51
-8.42
1.43
3.96
-3.17
-21.73
-51.38
-88.39
-125.89
-155.71
-171.37
-170.47
-155.64
-133.08
-109.81
-90.85
-77.87
-69.66
-63.86
-58.78
-54.14
-50.73
-49.28
-49.62
-50.53
-50.32
-47.71
-42.50
-35.58
-28.30
-21.82
-16.51
-11.88
-6.97
-0.91
6.46
14.47
21.79
27.01
29.16
28.10
24.54
19.69
14.84
10.91
8.21
6.49
5.17
3.61
1.43
-1.42
-4.68
-7.87
-10.51
-12.24
-12.91
-12.53
-11.24
-9.05
-5.79
-1.20
5.01
12.94
22.37
32.86
43.84
54.68
64.56
72.30
76.70
77.05
73.84
69.00
65.44
65.82
71.36
81.22
92.96
103.70
111.46
115.72
117.24
117.31
116.91
116.36
115.44
113.80
111.31
108.27
105.48
104.18
105.79
111.27
120.36
131.00
139.17
139.67
127.64
100.30
58.29
6.03
-49.35
-100.10
-139.94
-165.86
-178.50
-181.28
-178.43
-173.22
-166.76
-158.16
-145.51
-127.15
-102.97
-74.97
-46.99
-23.71
-9.36
-6.35
-14.41
-30.39
-49.01
-64.37
-71.94
-70.04
-60.13
-45.82
-30.99
-18.17
-7.91
0.67
8.65
16.26
22.71
26.71
27.57
26.12
24.36
24.38
27.30
32.67
38.67
42.99
43.89
41.01
36.42
33.46
35.55
44.65
60.26
79.45
98.02
112.38
120.98
125.80
130.56
138.81
152.16
169.50
187.67
202.93
212.55
215.56
214.04
211.05
209.21
209.57
211.11
211.28
207.28
197.43
174.41
135.89
84.03
25.13
-32.66
-82.78
-122.19
-151.21
-171.66
-185.45
-192.78
-193.76
-189.20
-180.83
-170.93
-161.63
-154.12
-148.43
-143.87
-138.62
-131.44
-122.26
-112.12
-102.71
-95.45
-90.80
-88.19
-86.45
-83.88
-79.52
-73.45
-66.57
-60.16
-55.24
-52.00
-49.89
-47.82
-44.43
-38.75
-30.63
-20.58
-9.63
0.89
9.60
15.15
16.49
13.40
6.67
-1.76
-9.40
-13.96
-14.40
-11.17
-6.07
-1.27
1.72
2.56
2.01
1.33
1.50
2.91
5.33
8.31
11.53
15.06
18.97
23.26
27.48
30.79
32.20
30.99
26.76
19.67
10.39
-0.21
-11.39
-22.80
-34.33
-46.00
-57.74
-68.56
-77.45
-83.08
-84.23
-80.18
-70.98
-57.39
-40.75
-22.89
-5.46
10.12
23.25
34.02
43.15
51.30
58.80
65.00
68.35
66.90
58.85
43.25
20.23
-8.03
-37.56
-62.61
-77.01
-76.33
-60.02
-32.27
-0.79
26.54
44.33
51.54
51.30
48.65
47.79
50.21
54.55
57.41
54.88
43.67
22.16
-8.98
-46.62
-85.42
-119.06
-142.79
-154.13
-154.08
-146.00
-133.16
-116.79
-95.65
-67.47
-31.39
10.25
52.16
87.94
113.04
126.43
130.65
129.92
127.44
124.30
119.74
112.98
104.27
94.92
85.79
76.33
64.55
48.28
27.10
3.25
-18.93
-35.13
-42.91
-42.47
-36.13
-26.95
-17.37
-8.67
-1.28
4.81
9.33
12.29
14.27
16.45
20.15
26.19
34.59
44.36
54.20
62.51
68.40
71.83
73.13
73.00
72.00
70.20
67.17
62.78
56.78
49.55
41.90
33.99
25.81
16.73
4.97
-12.51
-34.67
-61.21
-91.32
-123.56
-157.07
-190.30
-221.44
-249.20
-273.42
-294.92
-315.59
-336.52
-356.54
-372.31
-376.56
-361.06
-320.72
-256.55
-175.66
-89.20
-7.79
67.45
130.68
177.59
208.09
225.06
231.91
231.44
225.76
217.03
206.60
193.09
174.63
149.93
118.89
83.54
47.91
15.75
-9.93
-27.68
-38.69
-44.54
-46.58
-45.83
-43.25
-39.82
-36.26
-32.78
-29.22
-25.75
-22.06
-17.88
-13.26
-7.36
-0.15
9.11
21.87
39.24
60.65
83.91
105.80
123.42
135.63
142.58
146.12
148.78
152.30
156.96
162.14
167.61
174.37
184.26
196.56
208.96
217.96
220.42
214.90
202.19
185.15
167.21
150.54
131.55
104.89
66.42
15.96
-42.73
-103.83
-161.68
-212.67
-255.97
-297.26
-342.28
-393.73
-449.33
-504.01
-553.26
-595.14
-630.17
-635.38
-596.66
-514.40
-405.33
-290.45
-184.13
-92.52
-16.87
43.63
90.41
120.78
134.83
133.16
118.42
94.28
63.83
29.57
-5.34
-36.64
-62.67
-80.23
-86.71
-80.89
-64.10
-39.97
-12.47
16.08
45.44
74.36
101.16
123.33
138.95
147.44
149.77
148.22
145.50
143.56
142.06
139.78
135.35
128.78
121.47
115.28
111.69
111.08
112.58
114.20
114.10
111.28
106.07
99.82
93.92
89.26
85.84
83.02
79.92
75.89
70.65
64.40
57.74
51.57
46.91
44.59
45.02
47.87
51.95
55.49
56.62
54.01
47.30
37.18
24.90
11.83
-1.07
-13.38
-25.07
-36.23
-46.74
-56.35
-64.82
-72.08
-78.44
-84.33
-90.06
-95.59
-100.40
-103.76
-105.08
-104.20
-101.50
-97.65
-93.35
-89.02
-84.87
-80.97
-77.52
-74.74
-72.67
-70.88
-68.47
-64.28
-57.43
-47.83
-36.31
-24.40
-13.84
-5.97
-1.43
-0.17
-1.61
-4.88
-9.01
-13.06
-16.23
-18.12
-18.83
-19.03
-19.61
-21.21
-23.69
-26.03
-26.52
-23.60
-16.72
-6.90
3.28
10.35
11.08
3.80
-11.30
-32.29
-56.02
-78.88
-97.39
-108.78
-111.32
-104.51
-88.70
-65.41
-37.12
-7.05
21.45
45.57
63.47
74.49
78.95
78.59
75.23
70.14
63.70
55.80
46.39
35.86
25.11
15.41
10.04
11.48
19.95
33.08
46.90
57.60
62.69
61.72
56.37
54.03
61.63
82.34
114.02
150.91
186.72
216.70
238.54
252.48
267.11
290.23
324.56
366.17
407.61
442.29
466.35
478.71
480.39
482.29
494.54
522.21
563.89
615.04
671.95
732.21
793.53
800.26
717.83
547.05
326.03
102.65
-91.75
-246.79
-365.41
-455.27
-523.85
-568.16
-585.07
-575.98
-548.26
-512.97
-478.64
-450.27
-430.24
-419.37
-410.86
-398.26
-378.67
-354.03
-328.74
-306.33
-288.62
-275.76
-267.03
-257.36
-242.51
-221.40
-196.63
-172.50
-152.10
-136.46
-124.89
-116.00
-106.53
-94.16
-78.53
-61.20
-44.42
-29.79
-17.92
-8.57
-1.01
6.62
16.13
28.61
43.92
60.94
78.18
94.28
108.41
120.49
131.00
140.72
150.33
160.11
169.85
178.97
186.60
191.97
194.66
194.69
192.40
188.06
181.38
171.30
156.25
134.69
105.89
70.27
29.60
-13.45
-55.75
-94.27
-126.54
-151.05
-167.42
-176.15
-178.11
-173.87
-163.39
-146.30
-122.87
-94.78
-65.22
-38.09
-16.50
-1.53
7.85
13.56
16.78
17.11
13.29
4.86
-6.48
-16.72
-21.20
-16.78
-3.40
16.18
37.93
58.63
76.77
92.17
104.56
112.39
112.69
102.20
78.93
43.29
-1.92
-52.36
-103.33
-150.44
-189.93
-218.66
-234.26
-235.68
-223.98
-202.73
-177.53
-154.65
-139.25
-134.06
-138.95
-151.57
-168.39
-185.53
-199.21
-206.00
-203.28
-189.97
-167.23
-138.47
-108.42
-81.45
-60.06
-44.32
-32.31
-21.55
-10.28
1.82
13.77
24.08
31.37
34.75
33.90
29.02
20.85
10.67
0.23
-8.62
-14.36
-16.35
-14.86
-10.88
-5.55
0.29
6.33
12.64
19.26
25.89
31.66
35.48
36.43
34.23
29.41
23.10
16.56
10.71
5.95
2.24
-0.58
-2.56
-3.62
-3.66
-2.85
-1.63
-0.60
-0.26
-0.84
-2.22
-4.02
-5.69
-6.67
-6.49
-4.83
-1.56
3.20
9.19
16.06
23.39
30.72
37.46
42.88
46.23
46.95
44.87
40.38
34.19
27.21
20.14
13.37
6.93
0.72
-5.31
-10.97
-15.81
-19.21
-20.50
-19.27
-15.62
-10.23
-4.38
0.41
2.94
2.76
0.49
-2.47
-4.48
-4.35
-1.72
2.90
8.57
14.40
19.91
25.07
30.12
35.25
40.41
45.25
49.21
51.67
52.15
50.44
46.66
41.27
34.91
28.25
21.90
16.33
11.90
8.91
7.54
7.72
9.12
11.11
12.95
13.94
13.69
12.13
9.61
6.71
4.21
2.86
3.24
5.62
9.88
15.54
21.88
28.17
33.81
38.47
42.10
44.85
47.04
49.09
51.45
54.44
58.08
62.01
65.56
67.99
68.76
67.77
65.42
62.36
59.33
56.92
55.41
54.84
54.99
55.37
55.30
53.96
50.53
44.54
36.02
25.67
14.68
4.30
-4.60
-11.82
-17.87
-23.57
-29.57
-35.96
-42.20
-47.33
-50.39
-50.81
-48.57
-44.09
-38.11
-31.45
-24.97
-19.52
-15.82
-14.37
-15.19
-17.68
-20.60
-22.33
-21.32
-16.71
-8.70
1.43
11.64
19.79
24.42
25.16
22.83
19.07
15.71
14.10
14.71
17.06
19.92
21.85
21.68
18.98
14.06
7.92
1.83
-3.10
-6.13
-7.15
-6.60
-5.30
-4.18
-3.98
-4.90
-6.56
-8.12
-8.55
-7.06
-3.38
2.18
8.76
15.34
20.98
25.22
28.17
30.61
33.79
39.06
47.46
59.16
73.11
87.02
97.76
102.31
98.86
87.66
71.20
53.44
38.41
28.87
25.45
26.77
30.38
33.91
35.90
36.05
34.77
32.66
30.01
26.76
22.66
17.54
11.41
4.36
-3.52
-12.29
-22.10
-33.04
-44.84
-56.69
-67.38
-75.60
-80.49
-81.99
-80.91
-78.59
-76.34
-74.86
-73.98
-72.81
-70.23
-65.59
-59.00
-51.33
-43.73
-37.13
-31.75
-27.16
-22.57
-17.32
-11.35
-5.19
0.29
4.32
6.72
7.88
8.59
9.66
11.44
13.67
15.58
16.23
14.96
11.83
7.63
3.60
0.94
0.22
1.18
2.76
3.65
2.86
0.20
-3.57
-6.95
-8.07
-5.14
3.17
17.20
35.86
56.37
74.46
85.31
85.21
73.17
51.69
26.28
3.50
-11.37
-16.07
-11.67
-1.55
10.40
21.30
29.84
35.98
40.15
42.57
43.09
41.54
37.97
32.96
27.26
21.47
15.60
9.02
0.59
-10.82
-25.74
-43.66
-62.89
-80.93
-95.12
-103.40
-104.92
-100.25
-90.91
-78.79
-65.47
-51.93
-38.69
-26.12
-14.69
-4.94
2.89
9.21
15.04
21.58
29.52
38.68
48.05
56.46
63.14
68.15
72.13
75.73
79.13
81.86
83.06
81.98
78.33
72.38
64.84
56.54
48.27
40.67
34.20
29.02
24.96
21.55
18.15
14.18
9.38
3.84
-2.27
-9.02
-16.89
-26.56
-38.36
-51.77
-65.52
-78.10
-88.57
-96.96
-104.03
-110.27
-115.01
-116.15
-110.78
-96.36
-71.70
-37.25
5.11
52.51
101.09
145.95
181.41
202.12
204.67
189.03
159.04
121.25
82.80
49.24
23.24
4.71
-8.04
-17.07
-23.96
-29.65
-34.64
-39.17
-43.19
-46.24
-47.44
-45.75
-40.46
-31.62
-20.26
-8.15
2.81
11.12
16.03
17.43
15.59
10.70
2.78
-8.31
-22.43
-39.01
-56.95
-74.88
-91.51
-105.91
-117.51
-126.08
-131.58
-133.99
-133.25
-129.21
-121.69
-110.45
-95.36
-76.41
-53.98
-28.91
-2.43
24.02
49.06
71.65
91.05
106.75
118.46
126.04
129.51
129.29
126.21
121.55
116.81
113.41
112.33
114.15
119.12
127.48
139.76
156.57
178.50
205.61
237.11
271.22
305.30
336.25
360.93
376.61
381.38
374.38
356.08
328.21
293.65
255.98
218.88
185.38
157.14
134.03
114.24
95.09
74.07
49.87
22.73
-5.93
-34.47
-61.70
-87.27
-111.22
-133.23
-152.26
-166.79
-175.70
-179.07
-178.45
-176.30
-174.92
-175.54
-178.04
-181.51
-185.07
-188.37
-191.53
-194.50
-196.48
-195.90
-191.07
-181.29
-167.65
-153.12
-141.61
-136.55
-139.42
-149.20
-162.86
-176.63
-187.38
-193.53
-194.94
-192.32
-186.52
-178.16
-167.77
-155.96
-143.53
-131.17
-118.94
-106.17
-91.64
-74.11
-52.71
-27.17
2.28
35.03
70.02
105.78
140.47
172.12
199.24
221.03
237.50
249.01
255.93
258.31
255.97
248.75
236.67
220.03
199.30
174.88
147.00
115.72
81.03
43.10
2.48
-39.69
-81.83
-122.21
-159.28
-192.10
-220.58
-245.43
-267.97
-290.06
-313.93
-341.83
-374.93
-412.11
-449.25
-479.71
-496.54
-495.13
-475.18
-440.89
-399.09
-356.46
-317.26
-282.78
-252.42
-225.35
-201.62
-181.93
-166.66
-154.61
-142.91
-128.10
-107.89
-82.30
-53.78
-26.34
-3.70
12.03
21.26
26.46
30.84
36.80
45.05
54.58
63.44
69.96
73.25
73.86
73.35
73.40
75.00
78.12
81.91
85.26
87.40
87.63
86.25
84.22
82.74
82.72
84.43
87.41
90.53
92.23
89.49
80.36
64.43
43.04
18.38
-7.36
-32.53
-56.26
-78.45
-101.61
-127.55
-156.76
-188.48
-221.27
-253.08
-280.93
-300.81
-308.32
-302.70
-284.01
-253.37
-212.76
-165.20
-114.10
-62.60
-13.07
48.48
123.57
203.50
274.34
326.58
358.44
373.05
373.91
363.01
341.92
309.70
267.69
218.92
168.56
120.18
76.16
37.68
5.70
-17.22
-30.61
-34.10
-29.20
-16.65
2.79
28.79
60.71
98.00
141.66
189.52
238.01
281.71
318.12
346.86
368.66
383.10
379.65
351.17
295.91
231.07
164.34
100.46
39.77
-15.13
-62.61
-102.18
-132.73
-154.17
-167.25
-175.48
-181.13
-185.50
-188.44
-189.14
-185.84
-175.38
-155.76
-127.51
-95.46
-64.68
-39.39
-21.59
-11.42
-7.43
-6.78
-7.19
-7.55
-8.80
-11.42
-15.39
-20.23
-25.74
-31.99
-38.96
-46.69
-55.27
-65.16
-76.22
-88.02
-99.90
-111.33
-121.78
-130.51
-136.69
-139.45
-138.16
-132.20
-121.09
-104.62
-82.95
-56.61
-26.43
6.54
41.05
75.79
109.37
140.42
167.61
189.78
205.96
215.54
218.38
214.88
205.98
192.96
177.38
160.88
145.15
131.83
122.39
117.90
118.93
125.32
136.28
150.48
166.39
182.39
197.03
209.08
217.68
222.54
223.98
223.01
221.05
219.62
219.80
221.82
224.88
227.31
227.05
222.26
211.84
195.61
174.31
149.34
122.49
95.67
70.62
48.76
31.01
17.70
8.59
2.98
-0.17
-2.12
-4.30
-8.25
-15.34
-26.46
-41.73
-60.25
-80.33
-99.96
-117.41
-131.67
-142.54
-150.43
-156.02
-160.00
-162.98
-165.61
-168.56
-172.41
-177.38
-183.08
-188.52
-192.41
-193.61
-191.51
-186.10
-177.76
-166.90
-153.75
-138.36
-120.80
-101.50
-81.41
-61.91
-44.50
-30.45
-20.44
-14.47
-11.99
-12.31
-14.95
-19.84
-27.24
-37.40
-50.20
-65.00
-80.72
-96.17
-110.38
-122.83
-133.31
-141.72
-147.92
-151.58
-152.39
-150.22
-145.30
-138.26
-129.95
-121.16
-112.37
-103.56
-94.34
-84.22
-72.89
-60.44
-47.30
-34.02
-21.04
-8.61
3.15
14.07
23.88
32.19
38.77
43.68
47.32
50.26
52.97
55.64
58.06
59.71
59.99
58.43
54.89
49.67
43.35
36.66
30.18
24.16
18.50
12.81
6.67
-0.23
-7.94
-16.35
-25.22
-34.21
-42.84
-50.32
-55.62
-57.61
-55.47
-49.03
-38.98
-26.65
-13.69
-1.51
8.99
17.55
24.33
29.69
33.91
37.14
39.42
40.84
41.58
41.92
42.16
42.63
43.48
44.73
46.18
47.55
48.56
49.07
49.06
48.62
47.82
46.62
44.84
42.27
38.72
34.23
29.03
23.50
18.01
12.85
8.22
4.34
1.47
-0.06
-0.02
1.61
4.56
8.31
12.38
16.44
20.49
24.63
28.92
33.13
36.83
39.45
40.55
40.02
38.03
35.03
31.58
28.25
25.58
24.07
24.06
25.65
28.60
32.34
36.07
38.97
40.43
40.22
38.47
35.64
32.26
28.81
25.54
22.54
19.79
17.26
15.10
13.66
13.46
14.95
18.39
23.60
30.04
36.90
43.45
49.22
54.10
58.21
61.62
64.25
65.75
65.71
63.67
59.17
51.68
40.61
25.57
6.59
-15.65
-39.83
-64.37
-87.73
-108.72
-126.45
-140.18
-149.23
-153.23
-152.59
-148.62
-143.33
-138.84
-136.57
-136.66
-137.75
-137.30
-132.68
-122.05
-104.79
-81.53
-53.86
-24.10
5.07
31.09
52.01
66.52
74.32
76.63
76.34
77.46
83.67
97.13
117.67
142.97
168.73
190.07
203.30
207.18
202.94
193.09
180.35
166.86
153.97
141.64
128.50
112.25
90.34
60.37
20.50
-29.52
-90.10
-154.14
-208.77
-241.99
-249.84
-237.51
-214.93
-191.33
-173.16
-158.52
-142.98
-123.36
-99.73
-75.08
-53.32
-37.08
-28.11
-26.00
-28.51
-33.04
-37.86
-42.33
-46.14
-48.46
-48.27
-45.31
-40.65
-36.25
-33.97
-34.34
-36.15
-37.27
-35.94
-31.99
-26.69
-21.39
-16.06
-9.24
0.85
14.40
29.01
40.28
43.71
37.08
21.85
2.67
-14.79
-25.99
-28.97
-24.17
-13.11
2.90
23.35
48.16
76.70
106.88
135.31
158.22
172.80
178.20
175.76
168.30
158.94
150.03
142.58
136.33
130.37
123.80
116.16
107.39
97.49
86.02
71.96
54.11
31.75
5.35
-23.05
-50.14
-72.16
-85.91
-89.62
-83.33
-68.63
-48.17
-25.03
-2.32
17.19
31.25
38.44
38.35
31.68
19.97
5.19
-10.83
-26.74
-41.74
-55.34
-67.13
-76.52
-82.85
-85.73
-85.36
-82.71
-79.49
-77.61
-78.47
-82.33
-88.03
-93.45
-96.51
-96.18
-92.97
-88.62
-85.12
-83.70
-84.35
-86.04
-87.43
-87.56
-85.94
-82.23
-75.67
-64.97
-48.63
-25.80
3.10
36.17
70.55
103.39
132.71
157.82
179.21
197.86
214.39
228.75
240.33
248.49
253.31
255.86
257.77
260.48
264.40
268.54
271.06
269.96
263.70
251.31
231.91
204.35
167.71
122.09
69.58
14.20
-39.41
-87.93
-130.78
-169.88
-207.85
-245.43
-280.05
-306.53
-319.53
-316.44
-298.89
-271.89
-241.53
-212.42
-186.52
-163.53
-142.32
-122.25
-103.44
-86.21
-70.26
-54.48
-37.31
-17.71
3.98
25.94
45.55
60.40
69.43
73.26
73.89
74.00
75.90
80.64
87.35
93.60
96.21
92.53
81.41
64.01
43.84
25.28
11.84
3.93
-1.86
-11.52
-30.86
-63.03
-106.29
-153.86
-195.96
-223.42
-230.88
-217.77
-187.42
-144.84
-96.88
-50.55
-11.56
16.75
33.78
40.88
40.41
35.68
31.22
29.52
31.12
35.35
41.11
46.79
49.66
45.96
33.07
11.21
-19.75
-59.45
-106.32
-153.03
-187.09
-197.22
-181.99
-157.68
-130.95
-102.08
-66.18
-14.52
57.52
148.49
249.76
341.55
401.16
415.92
387.32
330.69
264.63
202.54
149.60
104.47
63.24
24.87
-6.89
-30.89
-46.92
-58.29
-70.18
-86.11
-105.40
-123.56
-134.09
-125.78
-103.38
-74.04
-46.29
-25.16
-13.37
-10.03
-12.84
-20.32
-32.62
-52.60
-81.07
-116.27
-153.04
-184.04
-201.87
-202.13
-184.88
-154.50
-118.82
-84.50
-56.00
-34.55
-18.85
-6.70
2.86
8.81
8.80
0.28
-16.79
-40.34
-66.63
-91.48
-111.32
-124.39
-130.76
-131.66
-128.58
-121.84
-111.05
-95.74
-76.16
-53.43
-29.26
-5.17
18.07
40.20
60.99
79.50
94.12
103.34
106.64
104.85
99.72
93.00
85.80
78.46
71.10
64.10
58.16
53.81
50.99
48.85
46.26
42.44
37.39
32.04
27.81
26.09
27.74
32.82
40.44
48.92
56.09
59.97
59.29
54.03
45.29
35.04
25.48
18.56
15.56
16.96
22.36
30.55
39.67
47.64
52.75
54.25
52.61
49.29
46.08
44.29
44.32
45.63
47.41
49.09
50.69
52.63
55.34
58.86
62.93
67.16
71.34
75.51
79.71
83.57
86.15
86.21
82.74
75.44
64.92
52.45
39.44
27.02
16.00
6.99
0.59
-2.59
-2.23
1.48
7.72
15.23
22.79
29.60
35.44
40.32
44.09
46.17
45.63
41.84
34.90
25.95
16.90
9.70
5.60
4.73
6.16
8.41
10.11
10.42
9.24
6.98
4.25
1.62
-0.54
-2.10
-3.22
-4.10
-4.91
-5.91
-7.38
-9.35
-11.13
-11.17
-7.42
1.56
15.67
32.84
49.50
61.76
67.07
65.05
57.29
46.32
34.17
22.04
10.36
-0.74
-11.41
-21.47
-30.34
-37.31
-41.56
-43.27
-43.13
-42.11
-41.27
-42.22
-45.68
-51.10
-56.81
-60.36
-61.17
-59.70
-57.06
-54.79
-55.68
-61.14
-70.68
-82.08
-91.66
-98.28
-102.03
-104.19
-107.46
-117.14
-136.42
-165.21
-199.88
-233.75
-262.52
-283.00
-293.89
-285.42
-254.00
-202.36
-141.02
-90.95
-53.56
-23.37
8.47
52.50
113.62
187.54
266.49
340.60
401.04
442.90
455.27
434.22
386.01
332.72
280.50
229.91
179.44
132.77
95.96
71.86
60.52
57.90
56.52
46.02
21.16
-17.44
-63.99
-110.51
-151.15
-181.83
-201.27
-210.85
-214.76
-215.37
-213.37
-208.36
-199.97
-189.16
-177.26
-166.23
-158.35
-156.33
-160.34
-168.20
-176.09
-180.15
-178.12
-169.59
-156.33
-141.59
-129.10
-120.97
-117.53
-117.94
-121.23
-126.87
-134.53
-143.68
-152.92
-160.05
-162.15
-156.74
-142.77
-121.02
-93.55
-62.63
-29.85
4.24
39.60
75.94
112.07
145.84
174.72
196.69
210.84
217.49
217.83
213.24
204.87
193.53
179.86
164.63
148.94
134.03
120.99
110.41
102.22
95.86
90.66
86.13
82.19
78.97
76.55
74.63
72.38
68.47
61.54
50.58
35.49
17.37
-1.58
-18.55
-30.90
-36.91
-36.32
-30.23
-20.72
-10.11
-0.34
7.43
12.83
16.17
18.03
19.08
19.88
20.82
22.06
23.65
25.49
27.41
29.16
30.46
31.03
30.72
29.52
27.61
25.43
23.64
22.98
24.19
27.78
33.88
42.08
51.51
60.84
68.51
72.95
72.84
67.34
56.22
40.02
20.00
-1.96
-23.70
-43.17
-58.80
-69.62
-75.29
-75.84
-71.56
-62.93
-50.68
-35.88
-19.92
-4.34
9.42
20.27
27.51
30.78
29.93
24.99
16.19
4.11
-10.28
-25.72
-40.78
-54.13
-64.78
-72.24
-76.45
-77.71
-76.45
-73.03
-67.72
-60.73
-52.46
-43.65
-35.39
-28.86
-24.96
-23.90
-25.11
-27.43
-29.50
-30.24
-29.05
-25.94
-21.27
-15.60
-9.47
-3.34
2.37
7.29
11.09
13.56
14.66
14.46
13.13
10.85
7.82
4.37
0.99
-1.69
-3.04
-2.73
-0.85
2.08
5.34
8.29
10.70
12.71
14.67
16.89
19.41
22.04
24.54
26.82
29.11
31.88
35.58
40.38
45.97
51.61
56.33
59.14
59.32
56.48
50.62
42.06
31.45
19.70
7.85
-3.02
-12.04
-18.63
-22.67
-24.45
-24.59
-23.83
-22.89
-22.39
-22.76
-24.18
-26.59
-29.62
-32.66
-34.97
-35.90
-35.16
-32.95
-29.99
-27.28
-25.79
-26.13
-28.36
-32.00
-36.13
-39.66
-41.47
-40.73
-36.98
-30.31
-21.30
-10.92
-0.20
9.93
18.77
25.91
31.10
34.28
35.57
35.33
34.11
32.56
31.20
30.25
29.58
28.72
27.08
24.14
19.72
14.05
7.83
1.90
-2.86
-5.92
-7.11
-6.63
-4.83
-2.03
1.57
5.82
10.56
15.52
20.38
24.91
29.02
32.75
36.14
39.17
41.71
43.67
45.08
46.22
47.47
49.21
51.61
54.47
57.28
59.22
59.38
56.94
51.45
42.90
31.84
19.14
5.73
-7.58
-20.26
-31.97
-42.42
-51.30
-58.32
-63.31
-66.31
-67.58
-67.41
-65.97
-63.27
-59.26
-54.01
-47.89
-41.49
-35.50
-30.42
-26.30
-22.79
-19.28
-15.11
-9.96
-3.88
2.69
9.06
14.53
18.61
21.06
22.07
22.13
21.90
22.05
23.01
24.85
27.21
29.44
30.71
30.28
27.68
22.83
16.08
8.10
-0.26
-8.17
-14.90
-19.92
-22.91
-23.72
-22.34
-18.85
-13.59
-7.17
-0.42
5.82
10.85
14.30
16.12
16.55
16.07
15.15
14.12
13.23
12.62
12.46
12.98
14.45
17.13
21.30
26.90
33.50
40.50
47.42
53.95
59.87
64.85
68.48
70.70
71.27
69.94
66.78
62.46
58.14
55.04
54.04
55.41
59.59
66.13
74.04
82.44
91.15
100.60
111.20
122.79
134.19
144.56
152.11
154.33
148.55
132.74
105.89
68.20
21.27
-36.83
-100.38
-158.38
-199.96
-220.08
-220.32
-205.69
-181.33
-150.93
-118.23
-85.38
-54.82
-29.21
-10.67
0.63
5.40
4.74
-0.25
-10.48
-26.15
-47.72
-75.37
-108.27
-144.71
-182.85
-221.94
-250.97
-262.85
-253.90
-226.23
-186.05
-139.96
-92.68
-46.67
-3.11
37.27
71.91
99.09
118.39
129.70
133.86
132.15
125.61
114.38
97.92
72.61
39.27
0.34
-41.34
-82.87
-120.90
-151.04
-167.92
-166.48
-145.02
-106.17
-57.69
-9.92
28.18
51.98
62.03
62.56
58.70
53.83
49.29
44.73
39.71
34.80
31.25
29.92
30.56
31.88
32.26
30.75
27.40
23.17
19.38
16.89
15.54
14.31
11.77
6.89
-0.38
-9.08
-17.59
-24.03
-26.96
-26.02
-21.98
-16.81
-13.09
-12.82
-16.40
-21.88
-25.49
-23.06
-11.98
7.33
31.32
54.54
71.88
80.37
79.92
72.64
61.37
48.46
35.21
22.21
9.89
-1.08
-9.90
-15.98
-19.33
-20.53
-20.43
-19.81
-19.04
-18.20
-17.28
-16.39
-15.82
-15.98
-17.24
-19.85
-23.95
-29.44
-35.84
-42.39
-47.99
-51.48
-51.88
-48.64
-41.33
-30.38
-16.83
-1.98
12.79
26.32
37.72
46.35
51.81
53.87
52.51
48.18
41.87
34.99
29.01
25.05
23.46
23.80
25.05
26.02
25.89
24.36
21.51
17.55
12.53
6.34
-0.98
-9.06
-17.05
-23.88
-28.68
-31.15
-31.64
-30.86
-29.43
-27.63
-25.26
-22.01
-17.71
-12.56
-7.12
-2.04
2.17
5.37
7.65
9.36
10.77
12.03
13.01
13.40
12.69
10.47
6.54
1.06
-5.37
-11.90
-17.45
-21.08
-22.11
-20.41
-16.40
-10.98
-5.23
-0.02
4.29
7.94
11.57
15.85
21.05
26.85
32.54
37.30
40.62
42.49
43.28
43.51
43.54
43.45
43.10
42.32
41.01
39.28
37.31
35.29
33.32
31.45
29.65
27.90
26.13
24.23
22.01
19.31
15.99
12.06
7.73
3.34
-0.70
-4.04
-6.43
-7.76
-8.04
-7.33
-5.70
-3.24
-0.06
3.72
7.91
12.33
16.75
20.98
24.91
28.44
31.49
34.01
35.92
37.01
37.01
35.52
32.13
26.52
18.62
8.65
-2.88
-15.27
-27.79
-39.71
-50.37
-59.17
-65.70
-69.83
-71.84
-72.40
-72.46
-73.00
-74.71
-77.82
-81.97
-86.35
-89.85
-91.36
-89.97
-85.28
-77.47
-67.35
-56.24
-45.60
-36.70
-30.29
-26.42
-24.61
-24.08
-24.06
-24.08
-23.98
-23.74
-23.28
-22.39
-20.81
-18.48
-15.57
-12.52
-9.86
-8.02
-7.21
-7.45
-8.60
-10.47
-12.79
-15.19
-17.20
-18.42
-18.56
-17.56
-15.61
-13.05
-10.24
-7.45
-4.82
-2.35
0.03
2.52
5.24
8.28
11.61
15.13
18.75
22.54
26.61
31.11
36.03
41.08
45.68
49.11
50.76
50.37
48.04
44.18
39.24
33.63
27.63
21.47
15.59
10.48
6.59
4.07
2.57
1.35
-0.36
-3.03
-6.48
-10.02
-12.78
-14.10
-13.78
-12.04
-9.22
-5.56
-1.08
4.28
10.45
16.97
23.15
28.28
31.91
34.03
35.01
35.46
36.06
37.45
39.97
43.62
47.93
51.99
54.57
54.53
51.30
45.31
37.98
31.12
26.34
24.35
24.71
26.01
26.57
25.12
21.41
16.20
10.40
5.00
0.81
-1.41
-0.84
3.17
10.86
21.79
34.80
47.23
56.42
60.81
61.03
59.69
60.17
65.06
75.23
89.74
104.77
115.84
119.55
114.92
103.21
86.64
66.86
44.45
18.99
-12.43
-53.02
-104.80
-167.31
-237.63
-311.29
-383.35
-449.00
-491.87
-497.88
-461.23
-389.71
-301.28
-214.13
-139.02
-78.24
-29.06
12.43
46.78
72.60
88.54
95.50
96.90
96.92
98.54
102.65
108.66
113.82
115.42
112.17
105.02
96.68
90.15
87.32
88.56
93.17
99.00
103.77
106.02
105.55
103.33
100.52
97.95
95.52
92.68
88.24
81.13
70.85
57.75
43.14
28.40
14.79
3.08
-6.50
-14.41
-21.52
-28.78
-36.74
-45.07
-53.01
-59.32
-62.69
-62.12
-57.42
-49.18
-38.61
-26.99
-15.06
-3.39
7.82
18.17
26.73
31.66
30.43
20.23
-1.61
-33.28
-72.16
-114.47
-155.69
-190.46
-212.44
-215.49
-196.14
-155.99
-102.24
-46.30
0.80
32.25
47.15
49.56
45.31
39.23
33.62
28.91
24.43
20.11
16.55
14.30
13.29
12.64
11.16
7.86
2.71
-3.83
-10.31
-15.29
-17.90
-18.08
-16.52
-13.96
-10.48
-5.23
2.73
13.27
23.95
29.75
24.80
4.94
-30.19
-76.47
-126.58
-172.18
-205.74
-221.97
-218.44
-195.44
-155.93
-105.40
-51.13
-0.69
40.13
66.36
76.86
74.38
64.51
53.92
48.87
53.79
70.60
98.57
135.59
177.74
220.33
259.51
292.96
320.35
342.71
361.61
378.30
393.64
405.29
407.40
392.51
354.29
290.84
206.20
109.46
6.20
-90.55
-167.15
-215.76
-236.90
-236.97
-222.79
-198.97
-168.64
-134.89
-100.71
-70.17
-46.92
-31.17
-21.51
-15.40
-10.86
-7.96
-8.80
-15.96
-32.61
-62.42
-104.46
-155.15
-208.61
-257.42
-293.79
-311.04
-305.59
-279.65
-240.93
-199.86
-166.11
-144.82
-135.59
-134.59
-136.42
-137.20
-135.84
-132.83
-128.69
-123.41
-116.31
-107.02
-96.36
-86.35
-79.14
-76.55
-79.04
-85.51
-93.93
-101.98
-107.75
-109.97
-110.27
-109.38
-107.32
-103.36
-96.27
-84.97
-68.95
-48.50
-24.54
1.84
30.11
60.26
92.69
127.87
165.73
205.58
246.25
286.50
325.51
363.28
400.36
437.71
476.56
517.87
561.71
606.26
647.22
677.97
691.32
681.67
647.43
592.03
522.68
448.06
375.41
308.90
249.51
196.39
148.44
105.32
67.42
34.45
5.30
-21.81
-48.39
-74.94
-100.89
-124.97
-145.91
-163.02
-177.37
-190.33
-202.48
-212.84
-219.46
-220.88
-217.26
-210.72
-204.19
-201.59
-205.02
-213.80
-224.79
-234.05
-239.07
-239.81
-238.38
-237.79
-243.11
-258.68
-286.94
-327.59
-377.88
-433.70
-490.64
-544.55
-576.81
-572.02
-523.14
-436.32
-327.92
-216.11
-114.01
-27.96
40.86
94.35
133.32
158.61
171.66
175.16
172.68
167.83
163.15
160.13
159.48
159.60
158.53
154.95
148.98
141.92
135.46
130.74
128.23
127.97
128.68
128.93
127.68
124.88
121.14
117.39
113.59
109.23
103.68
95.93
85.30
71.46
55.00
37.03
18.88
1.72
-13.30
-24.83
-31.77
-33.25
-29.38
-21.06
-10.31
-0.05
6.39
6.30
-1.53
-16.73
-35.33
-54.91
-73.29
-89.24
-102.42
-113.21
-122.19
-129.98
-137.36
-144.78
-151.92
-156.44
-154.38
-141.46
-115.47
-78.04
-34.85
6.21
38.21
57.53
65.05
64.47
59.97
54.13
47.71
40.70
33.42
27.17
23.41
22.85
24.56
26.40
26.01
21.86
14.37
5.20
-3.48
-10.16
-14.79
-18.71
-23.68
-31.04
-41.03
-51.54
-59.47
-61.49
-54.78
-37.65
-10.16
25.13
62.80
94.80
113.63
114.92
99.68
74.15
47.54
27.91
19.18
20.10
25.98
31.99
35.47
36.58
37.12
38.89
41.95
45.02
46.32
44.19
38.35
29.28
17.76
3.82
-12.88
-32.09
-51.85
-68.30
-76.81
-74.05
-60.24
-39.51
-18.47
-2.99
4.13
4.26
1.45
-0.05
2.27
8.34
16.35
24.18
30.55
34.43
35.64
33.75
27.80
17.04
1.47
-17.55
-37.38
-54.59
-66.02
-70.01
-66.51
-57.32
-45.28
-33.18
-22.76
-14.29
-6.70
1.65
11.90
23.91
35.96
45.44
50.11
48.81
42.12
32.11
21.60
13.31
9.32
11.02
19.07
32.74
49.30
64.12
70.76
65.13
47.18
21.44
-4.74
-24.28
-33.41
-32.86
-26.39
-18.29
-11.06
-5.07
0.39
5.56
9.65
11.34
9.99
6.74
4.04
4.61
10.09
20.00
31.89
42.38
48.88
49.61
44.73
35.33
22.99
8.27
-9.43
-31.50
-59.21
-92.80
-131.78
-174.16
-217.01
-254.34
-279.06
-284.72
-268.10
-230.70
-178.87
-121.73
-67.73
-21.98
14.44
42.99
66.46
86.24
101.99
112.44
116.98
116.62
113.50
109.85
106.70
103.99
100.72
95.81
88.94
80.80
72.75
65.99
61.28
58.49
57.14
56.41
55.60
54.46
53.23
52.41
52.19
53.26
54.34
54.69
53.62
50.75
45.97
39.37
31.09
21.33
10.61
-0.36
-10.01
-16.72
-19.09
-16.60
-9.99
-1.19
7.26
13.37
15.79
15.00
12.40
9.91
8.45
7.70
6.15
2.30
-4.11
-11.76
-17.83
-19.41
-14.84
-4.55
9.37
24.36
37.73
46.60
47.52
37.17
14.35
-17.72
-50.33
-71.95
-72.87
-50.65
-11.89
30.26
62.27
76.14
71.86
56.16
37.40
21.45
9.53
-0.47
-11.52
-24.97
-39.97
-54.34
-64.57
-68.28
-64.40
-53.23
-35.95
-14.31
10.06
36.23
63.78
92.31
120.89
148.30
173.41
195.69
214.94
231.06
243.58
251.40
253.11
247.40
233.89
213.44
188.03
160.03
132.11
106.87
86.12
70.03
56.68
42.75
24.88
1.12
-29.47
-65.97
-106.38
-148.87
-193.11
-240.14
-290.67
-343.19
-393.04
-435.77
-466.55
-480.66
-474.29
-445.96
-397.26
-332.13
-255.87
-174.07
-95.77
-28.69
23.58
62.41
91.44
113.35
128.36
134.03
126.45
96.87
38.88
-47.44
-154.49
-270.66
-384.85
-488.97
-578.26
-619.51
-590.71
-493.45
-354.63
-208.23
-77.45
28.60
109.76
169.95
214.39
242.90
254.89
252.31
240.49
226.22
214.83
209.20
210.31
218.14
227.75
233.67
233.16
226.52
215.96
203.48
190.10
175.91
160.66
141.37
115.23
82.88
47.16
11.66
-21.06
-49.72
-73.20
-89.31
-95.64
-89.59
-69.82
-38.06
0.46
38.21
68.33
87.16
95.18
95.31
90.89
84.26
76.64
69.15
63.44
61.40
63.63
68.14
70.18
63.65
44.15
11.13
-30.97
-74.47
-111.33
-136.41
-150.06
-154.83
-155.28
-155.25
-156.35
-157.74
-157.56
-153.70
-144.48
-128.33
-103.93
-71.71
-34.89
-0.22
24.24
32.91
26.36
12.04
1.29
3.66
21.54
49.27
76.08
92.19
93.72
83.94
70.35
60.12
56.69
59.01
64.20
69.70
75.45
83.67
97.15
117.15
142.33
169.29
193.45
211.12
219.46
216.97
203.15
178.25
143.66
102.42
59.41
19.28
-10.64
-25.53
-26.23
-19.53
-14.53
-17.70
-29.13
-42.87
-51.85
-52.36
-47.47
-45.24
-53.21
-73.47
-101.16
-128.47
-150.46
-169.02
-189.24
-213.88
-238.85
-253.29
-245.28
-208.71
-147.33
-73.03
-0.22
62.19
113.33
157.45
198.73
235.13
260.29
268.95
266.26
257.80
248.37
239.81
228.16
209.20
179.78
139.94
92.62
42.31
-7.90
-55.99
-101.43
-145.85
-189.82
-232.38
-270.86
-302.51
-325.53
-340.15
-347.25
-348.23
-346.63
-345.18
-344.69
-343.49
-337.93
-323.36
-296.21
-255.31
-193.40
-115.88
-37.52
25.46
64.64
82.02
85.58
83.18
79.87
78.00
77.33
79.09
86.02
100.85
123.91
152.45
182.17
208.93
230.78
247.20
260.82
276.55
299.54
332.40
373.30
415.80
449.88
465.72
456.47
422.15
369.33
308.12
248.00
194.54
148.75
107.30
66.77
26.00
-12.45
-43.63
-62.99
-68.93
-63.45
-51.20
-40.02
-36.66
-44.65
-63.55
-90.00
-120.14
-151.64
-183.98
-217.37
-254.71
-297.72
-345.80
-396.39
-446.17
-492.78
-535.51
-574.54
-590.76
-568.58
-500.89
-394.16
-265.39
-133.01
-10.30
95.72
182.77
251.38
300.61
329.88
341.93
340.80
331.34
318.09
304.11
291.06
279.61
267.68
252.62
232.95
210.50
187.80
166.59
146.90
127.36
106.26
81.22
50.07
13.42
-25.47
-62.25
-93.67
-118.68
-138.02
-153.29
-166.20
-179.52
-193.73
-207.24
-217.96
-225.21
-230.15
-234.76
-240.88
-249.25
-262.18
-279.52
-297.97
-312.16
-316.53
-306.77
-280.87
-240.52
-174.59
-87.73
3.47
80.37
133.60
165.07
181.68
188.57
184.09
165.83
129.67
76.56
13.62
-48.88
-102.76
-145.65
-175.60
-196.24
-212.16
-227.75
-241.81
-247.76
-237.49
-206.31
-155.73
-92.76
-27.73
30.91
77.66
112.83
141.02
167.88
197.20
229.94
264.94
299.60
331.77
358.84
378.32
387.73
384.99
369.33
342.24
307.78
271.21
238.05
211.78
193.19
180.46
169.78
157.33
140.60
119.13
93.62
65.98
38.51
13.05
-9.47
-29.73
-47.81
-62.61
-71.74
-73.28
-65.99
-49.90
-26.39
2.28
31.96
59.05
79.92
90.77
85.96
60.57
12.27
-57.30
-142.61
-236.49
-328.63
-407.43
-461.78
-485.43
-477.46
-442.92
-391.65
-327.31
-261.24
-205.79
-172.96
-158.61
-155.09
-154.96
-153.73
-148.86
-138.98
-124.95
-106.01
-81.59
-51.40
-17.42
17.94
52.95
86.75
119.11
148.86
177.44
206.18
236.14
266.63
296.89
327.18
358.95
393.91
431.64
471.63
509.18
536.20
543.31
524.40
479.79
416.20
343.86
258.88
165.65
72.86
-9.59
-74.77
-119.98
-145.47
-153.38
-147.85
-135.07
-119.48
-105.44
-96.23
-92.14
-91.98
-93.71
-95.46
-96.93
-99.74
-104.48
-112.46
-125.09
-143.52
-168.25
-198.67
-233.04
-265.82
-290.93
-302.24
-297.86
-281.57
-261.42
-246.07
-240.58
-244.25
-251.89
-257.54
-257.21
-251.43
-244.06
-239.21
-238.80
-241.80
-245.50
-247.82
-248.63
-248.92
-250.15
-252.75
-255.62
-256.59
-253.31
-244.33
-229.55
-210.22
-188.13
-164.82
-141.03
-116.57
-90.85
-63.39
-34.34
-4.53
24.85
52.65
78.16
101.25
122.20
141.35
158.93
174.87
189.05
201.48
212.38
222.35
232.25
243.17
256.18
271.84
289.65
307.73
322.93
331.70
331.42
321.36
303.09
279.75
254.79
230.78
208.98
189.57
172.63
158.63
148.42
142.80
141.93
145.04
150.71
157.49
164.41
171.32
178.67
186.93
196.09
205.39
213.41
218.40
218.91
214.27
204.93
192.01
176.79
160.16
142.53
123.90
104.33
84.29
64.72
47.18
32.72
21.40
12.52
5.14
-1.24
-6.31
-9.20
-8.80
-3.19
8.59
26.25
48.49
73.50
99.52
124.94
148.26
168.04
184.70
198.48
209.46
217.68
223.45
227.12
228.62
227.21
221.65
212.93
201.51
186.97
167.86
142.29
108.88
67.73
20.83
-40.46
-114.49
-191.80
-258.83
-305.14
-328.09
-331.59
-322.25
-306.36
-288.08
-268.56
-249.48
-233.22
-222.43
-218.84
-222.52
-232.17
-246.25
-262.38
-274.67
-278.24
-270.01
-249.42
-218.43
-180.47
-139.22
-97.82
-58.20
-20.20
15.88
49.49
79.70
105.53
126.62
143.36
156.72
168.01
179.66
191.52
202.95
213.05
220.92
226.32
229.58
231.42
232.75
234.47
235.83
235.70
232.47
224.32
209.64
187.04
155.10
111.84
60.88
4.64
-53.97
-111.81
-165.66
-212.38
-249.10
-273.54
-284.21
-280.31
-262.90
-233.71
-195.20
-150.31
-102.07
-53.48
-7.52
34.19
70.40
99.93
122.45
138.18
147.72
151.95
151.80
147.87
141.70
134.57
127.46
121.40
117.27
115.67
116.83
120.35
124.59
129.69
134.86
139.34
142.41
143.28
140.84
133.68
120.16
96.58
65.41
27.65
-14.42
-57.76
-99.35
-137.07
-170.28
-199.81
-232.43
-263.84
-294.60
-324.03
-350.69
-373.28
-391.55
-406.60
-420.45
-443.53
-468.58
-497.12
-529.87
-566.35
-604.18
-638.59
-662.76
-669.55
-664.53
-635.15
-585.74
-523.93
-457.59
-391.84
-327.83
-263.83
-131.76
-19.44
81.98
165.45
224.46
256.20
263.01
251.65
230.66
207.54
175.91
148.79
125.29
104.28
85.20
67.62
50.12
29.47
1.19
-46.59
-105.18
-170.25
-233.10
-283.51
-313.77
-321.69
-311.12
-289.68
-270.37
-252.56
-237.48
-223.43
-208.05
-190.15
-169.81
-147.42
-122.28
-95.27
-62.12
-22.67
21.42
66.66
108.52
143.36
169.75
189.70
206.70
227.09
255.09
292.02
334.33
373.49
398.14
397.79
367.25
308.50
230.84
149.00
79.51
35.32
21.83
36.21
69.37
110.33
148.93
176.52
183.81
167.08
130.59
82.86
33.60
-14.23
-58.30
-96.03
-125.37
-144.23
-151.24
-146.40
-131.38
-108.48
-80.06
-47.18
-10.61
28.63
69.52
111.57
154.47
198.00
242.67
290.00
342.78
402.70
468.35
534.41
592.73
634.67
654.20
650.31
627.32
593.29
556.21
521.26
490.04
461.78
435.00
408.70
382.63
356.61
330.10
301.77
270.24
234.91
196.60
157.33
119.64
85.50
55.72
29.76
6.22
-16.31
-38.54
-59.97
-79.13
-94.27
-104.21
-109.00
-110.05
-109.63
-109.89
-112.11
-116.19
-120.82
-124.24
-125.18
-123.63
-120.99
-119.47
-121.27
-127.56
-137.97
-150.72
-163.60
-174.88
-184.00
-192.02
-200.98
-213.38
-231.65
-257.61
-291.60
-331.25
-370.88
-402.39
-418.15
-414.65
-395.45
-370.76
-353.64
-354.15
-374.68
-408.90
-444.89
-470.51
-478.08
-465.97
-437.23
-396.46
-347.46
-292.32
-232.08
-167.53
-99.39
-28.11
45.64
119.81
189.72
247.44
283.58
291.07
269.29
226.29
177.42
140.73
130.74
153.25
203.47
268.11
330.26
374.98
393.31
383.44
349.50
298.88
239.30
177.10
116.37
59.18
5.98
-43.77
-90.65
-134.24
-172.56
-202.35
-220.32
-224.84
-216.96
-200.16
-178.76
-156.37
-135.09
-116.05
-100.37
-89.51
-84.98
-87.41
-96.12
-109.85
-127.12
-147.45
-170.74
-195.94
-220.01
