1582033813.00
64.000000
-0.00
-0.00
-0.00
-0.00
-0.00
-0.00
-0.00
-0.00
-0.00
-0.00
0.00
0.01
0.01
-0.00
-0.03
-0.05
-0.05
0.00
0.13
0.36
0.66
1.01
1.37
1.72
2.06
2.40
2.79
3.24
3.80
4.42
5.06
5.66
6.20
6.68
7.15
7.68
8.31
9.14
10.09
11.04
11.88
12.56
13.14
13.76
14.65
15.96
17.91
20.32
22.90
25.38
27.58
29.57
31.68
34.32
37.81
42.54
48.15
54.10
59.83
64.97
69.58
74.14
79.34
85.71
93.76
103.00
112.62
121.73
129.77
136.75
143.30
150.75
157.77
166.64
177.95
191.79
206.97
220.57
228.25
225.36
208.53
176.87
132.76
80.05
23.07
-34.94
-92.44
-149.16
-205.23
-260.37
-313.74
-363.87
-409.83
-450.91
-486.50
-515.74
-537.23
-549.22
-549.96
-538.37
-514.21
-478.67
-433.88
-382.45
-327.02
-269.84
-212.63
-156.66
-102.95
-52.37
-5.90
35.58
71.43
101.35
125.50
144.38
158.69
169.15
176.37
180.75
182.57
182.07
179.51
175.23
169.65
163.18
156.15
148.81
141.30
133.69
126.02
118.33
110.69
103.16
95.80
88.68
81.83
75.25
68.95
62.95
57.25
51.86
46.78
42.03
37.59
33.45
29.61
26.07
22.81
19.83
17.11
14.67
12.48
10.54
8.83
7.35
6.07
4.97
4.05
3.27
2.62
2.09
1.65
1.30
1.01
0.79
0.61
0.47
0.37
0.29
0.23
0.19
0.17
0.16
0.15
0.16
0.17
0.20
0.23
0.28
0.34
0.39
0.42
0.42
0.39
0.33
0.27
0.24
0.25
0.31
0.39
0.46
0.50
0.50
0.48
0.46
0.49
0.59
0.76
0.96
1.13
1.23
1.25
1.21
1.19
1.29
1.57
1.99
2.47
2.86
3.05
2.99
2.77
2.59
2.65
3.11
3.90
4.83
5.58
5.88
5.64
5.02
4.43
4.29
4.87
6.10
7.61
8.82
9.25
8.69
7.33
5.66
4.18
3.13
2.35
1.36
-0.51
-3.80
-8.83
-15.78
-24.48
-34.22
-43.55
-50.34
-52.35
-48.20
-38.13
-24.33
-10.10
1.42
8.44
11.07
10.82
9.59
8.66
8.28
8.04
7.45
6.45
5.43
4.86
4.95
5.48
5.94
5.88
5.15
4.04
3.13
2.96
3.78
5.34
7.04
8.17
8.26
7.35
5.88
4.55
3.87
4.02
4.72
5.49
5.84
5.54
4.67
3.55
2.52
1.83
1.55
1.61
1.88
2.16
2.26
2.05
1.48
0.61
-0.36
-1.16
-1.59
-1.61
-1.36
-1.05
-0.95
-1.16
-1.64
-2.22
-2.69
-2.95
-3.05
-3.21
-3.65
-4.54
-5.85
-7.36
-8.76
-9.82
-10.40
-10.53
-10.29
-9.76
-9.01
-8.05
-6.93
-5.73
-4.51
-3.32
-2.13
-0.84
0.60
2.23
3.95
5.62
7.06
8.20
9.03
9.64
10.12
10.50
10.74
10.72
10.37
9.66
8.69
7.59
6.55
5.67
5.02
4.57
4.22
3.84
3.31
2.54
1.60
0.61
-0.26
-0.93
-1.46
-2.01
-2.77
-3.83
-5.13
-6.51
-7.83
-9.02
-10.08
-10.99
-11.69
-11.98
-11.71
-10.80
-9.41
-7.83
-6.41
-5.37
-4.72
-4.24
-3.62
-2.62
-1.17
0.58
2.36
3.91
5.11
6.00
6.71
7.40
8.12
8.77
9.18
9.21
8.82
8.15
7.40
6.78
6.38
6.17
6.02
5.83
5.57
5.28
5.03
4.80
4.52
4.01
3.15
1.87
0.19
-1.81
-4.04
-6.38
-8.64
-10.58
-11.98
-12.67
-12.71
-12.29
-11.69
-11.13
-10.70
-10.30
-9.76
-8.95
-7.77
-6.27
-4.52
-2.68
-0.85
0.86
2.42
3.88
5.38
7.09
9.14
11.52
14.07
16.43
18.22
19.13
19.03
18.04
16.50
14.80
13.25
11.94
10.76
9.47
7.94
6.15
4.25
2.43
0.81
-0.65
-2.09
-3.67
-5.45
-7.36
-9.24
-10.94
-12.40
-13.61
-14.58
-15.25
-15.49
-15.13
-14.11
-12.51
-10.59
-8.67
-7.02
-5.76
-4.81
-3.94
-2.99
-1.86
-0.62
0.60
1.70
2.67
3.60
4.60
5.75
7.04
8.33
9.42
10.09
10.22
9.81
9.01
8.03
7.09
6.34
5.82
5.46
5.15
4.82
4.41
3.91
3.30
2.53
1.58
0.35
-1.16
-2.93
-4.87
-6.87
-8.78
-10.52
-12.00
-13.14
-13.86
-14.08
-13.75
-12.95
-11.82
-10.57
-9.35
-8.27
-7.28
-6.31
-5.30
-4.21
-3.04
-1.79
-0.44
1.05
2.63
4.24
5.83
7.35
8.80
10.14
11.28
12.05
12.27
11.90
11.07
10.01
8.99
8.18
7.51
6.84
6.01
4.98
3.89
2.93
2.24
1.78
1.39
0.80
-0.16
-1.56
-3.32
-5.28
-7.25
-9.09
-10.69
-11.95
-12.80
-13.15
-12.93
-12.14
-10.85
-9.20
-7.41
-5.69
-4.18
-2.91
-1.78
-0.65
0.58
1.96
3.44
4.95
6.42
7.85
9.21
10.52
11.70
12.67
13.34
13.66
13.64
13.36
12.95
12.52
12.16
11.92
11.78
11.67
11.49
11.13
10.51
9.62
8.49
7.19
5.77
4.23
2.53
0.63
-1.51
-3.83
-6.16
-8.19
-9.59
-10.08
-9.59
-8.33
-6.71
-5.21
-4.21
-3.83
-3.94
-4.25
-4.46
-4.35
-3.84
-2.98
-1.83
-0.54
0.76
1.90
2.75
3.24
3.44
3.47
3.50
3.63
3.82
3.90
3.68
3.01
1.86
0.30
-1.61
-3.84
-6.42
-9.35
-12.51
-15.69
-18.56
-20.95
-22.92
-24.76
-26.90
-29.72
-33.31
-37.48
-41.77
-45.69
-48.82
-50.91
-51.94
-51.95
-51.01
-49.08
-46.06
-41.79
-36.12
-29.02
-20.55
-10.91
-0.40
10.61
21.63
32.14
41.59
49.46
55.36
59.09
60.73
60.61
59.22
57.10
54.69
52.20
49.65
46.95
44.00
40.82
37.52
34.25
31.10
28.08
25.09
22.01
18.77
15.39
11.93
8.52
5.29
2.35
-0.15
-2.11
-3.46
-4.23
-4.53
-4.48
-4.22
-3.83
-3.34
-2.77
-2.15
-1.50
-0.84
-0.15
0.69
1.75
3.05
4.49
5.90
7.08
7.91
8.39
8.61
8.63
8.49
8.14
7.55
6.78
5.96
5.26
4.82
4.68
4.73
4.80
4.68
4.25
3.44
2.28
0.88
-0.68
-2.28
-3.83
-5.22
-6.32
-6.95
-7.00
-6.43
-5.38
-4.09
-2.84
-1.78
-0.89
-0.00
1.10
2.48
3.98
5.30
6.16
6.45
6.34
6.17
6.26
6.74
7.48
8.12
8.35
7.97
7.04
5.77
4.43
3.19
2.04
0.87
-0.43
-1.88
-3.37
-4.75
-5.93
-6.98
-8.07
-9.47
-11.32
-13.56
-15.88
-17.81
-18.93
-19.01
-18.14
-16.61
-14.86
-13.21
-11.80
-10.53
-9.17
-7.56
-5.69
-3.73
-1.96
-0.59
0.35
1.00
1.56
2.18
2.85
3.44
3.82
3.93
3.82
3.61
3.39
3.15
2.83
2.33
1.63
0.76
-0.21
-1.23
-2.28
-3.37
-4.53
-5.77
-7.11
-8.60
-10.29
-12.15
-14.06
-15.77
-16.98
-17.45
-17.10
-16.00
-14.28
-12.11
-9.62
-6.91
-4.13
-1.52
0.69
2.31
3.31
3.82
4.08
4.31
4.60
4.92
5.14
5.12
4.75
4.02
3.03
1.91
0.82
-0.13
-0.83
-1.28
-1.57
-1.92
-2.57
-3.72
-5.47
-7.75
-10.36
-13.12
-15.86
-18.50
-20.94
-23.07
-24.73
-25.79
-26.19
-25.98
-25.32
-24.35
-23.12
-21.59
-19.65
-17.22
-14.29
-10.97
-7.49
-4.08
-0.99
1.63
3.73
5.34
6.54
7.44
8.13
8.66
9.06
9.31
9.32
8.95
8.05
6.52
4.42
1.99
-0.41
-2.40
-3.77
-4.56
-5.03
-5.58
-6.59
-8.27
-10.68
-13.63
-16.75
-19.60
-21.76
-22.94
-23.05
-22.22
-20.71
-18.86
-16.91
-15.00
-13.12
-11.11
-8.78
-5.92
-2.46
1.49
5.57
9.36
12.49
14.82
16.45
17.69
18.85
20.09
21.34
22.37
22.96
22.99
22.48
21.61
20.52
19.32
18.03
16.58
14.93
13.06
11.09
9.17
7.48
6.08
4.90
3.73
2.28
0.34
-2.12
-4.94
-7.79
-10.30
-12.20
-13.33
-13.68
-13.31
-12.27
-10.66
-8.60
-6.26
-3.80
-1.35
1.05
3.48
6.08
9.00
12.21
15.57
18.80
21.62
23.83
25.35
26.26
26.70
26.80
26.61
26.11
25.26
24.07
22.62
21.07
19.58
18.23
17.03
15.86
14.59
13.12
11.40
9.46
7.34
5.08
2.68
0.15
-2.50
-5.20
-7.87
-10.40
-12.68
-14.64
-16.26
-17.56
-18.63
-19.58
-20.54
-21.50
-22.38
-22.98
-23.09
-22.57
-21.42
-19.78
-17.83
-15.74
-13.56
-11.25
-8.76
-6.04
-3.16
-0.23
2.56
5.12
7.32
9.14
10.54
11.48
12.02
12.27
12.41
12.61
12.99
13.45
13.71
13.41
12.30
10.33
7.71
4.84
2.07
-0.39
-2.54
-4.51
-6.45
-8.47
-10.54
-12.61
-14.57
-16.28
-17.61
-18.40
-18.55
-18.10
-17.20
-16.08
-14.91
-13.70
-12.25
-10.33
-7.79
-4.73
-1.47
1.64
4.33
6.56
8.45
10.16
11.70
12.96
13.74
13.90
13.48
12.65
11.68
10.77
10.09
9.66
9.48
9.51
9.68
9.90
10.01
9.79
9.11
7.85
6.07
3.93
1.66
-0.52
-2.53
-4.43
-6.46
-8.84
-11.73
-14.99
-18.27
-21.06
-22.97
-23.83
-23.73
-22.97
-21.80
-20.34
-18.57
-16.38
-13.75
-10.76
-7.59
-4.43
-1.34
1.71
4.77
7.82
10.75
13.36
15.43
16.86
17.64
17.88
17.76
17.50
17.24
17.06
16.94
16.82
16.65
16.40
16.05
15.64
15.14
14.48
13.57
12.32
10.69
8.75
6.63
4.48
2.44
0.55
-1.20
-2.87
-4.56
-6.36
-8.38
-10.63
-13.06
-15.50
-17.74
-19.56
-20.75
-21.21
-20.95
-20.03
-18.57
-16.71
-14.59
-12.37
-10.19
-8.08
-6.04
-3.94
-1.71
0.69
3.11
5.31
7.06
8.31
9.21
10.08
11.24
12.80
14.64
16.39
17.71
18.43
18.65
18.69
18.84
19.20
19.65
19.90
19.70
18.96
17.76
16.29
14.71
13.11
11.51
9.88
8.21
6.54
4.93
3.38
1.88
0.32
-1.45
-3.54
-5.94
-8.52
-10.94
-12.88
-14.03
-14.34
-13.94
-13.16
-12.33
-11.65
-11.10
-10.51
-9.61
-8.24
-6.39
-4.20
-1.90
0.29
2.27
4.02
5.60
7.03
8.24
9.14
9.66
9.77
9.59
9.27
8.92
8.62
8.37
8.18
8.00
7.83
7.62
7.32
6.89
6.28
5.51
4.57
3.48
2.20
0.69
-1.10
-3.19
-5.56
-8.17
-10.95
-13.80
-16.51
-18.79
-20.26
-20.65
-19.86
-18.06
-15.63
-12.98
-10.40
-7.96
-5.54
-2.98
-0.23
2.54
5.07
7.08
8.44
9.16
9.35
9.12
8.58
7.81
6.95
6.17
5.67
5.58
5.90
6.46
7.03
7.35
7.25
6.67
5.62
4.18
2.45
0.52
-1.50
-3.57
-5.67
-7.83
-10.06
-12.37
-14.75
-17.16
-19.53
-21.78
-23.84
-25.65
-27.18
-28.36
-29.09
-29.24
-28.66
-27.28
-25.14
-22.49
-19.63
-16.94
-14.62
-12.74
-11.17
-9.70
-8.16
-6.51
-4.80
-3.12
-1.55
-0.04
1.50
3.19
5.06
7.02
8.88
10.44
11.56
12.21
12.49
12.50
12.32
11.96
11.39
10.62
9.74
8.84
8.00
7.20
6.35
5.28
3.93
2.40
0.90
-0.32
-1.12
-1.61
-2.10
-2.96
-4.43
-6.51
-8.92
-11.30
-13.28
-14.68
-15.50
-15.84
-15.84
-15.58
-15.13
-14.50
-13.74
-12.82
-11.73
-10.39
-8.71
-6.66
-4.27
-1.70
0.91
3.39
5.62
7.53
9.11
10.41
11.50
12.49
13.44
14.39
15.29
16.06
16.64
16.96
17.05
16.93
16.62
16.13
15.47
14.65
13.71
12.72
11.74
10.82
9.92
9.03
8.11
7.17
6.24
5.34
4.45
3.50
2.37
0.91
-0.94
-3.16
-5.50
-7.58
-9.03
-9.58
-9.22
-8.20
-6.89
-5.64
-4.62
-3.70
-2.64
-1.18
0.81
3.20
5.67
7.90
9.68
10.97
11.92
12.74
13.55
14.34
14.97
15.27
15.21
14.86
14.42
14.05
13.76
13.43
12.92
12.15
11.16
10.15
9.29
8.60
7.96
7.16
6.02
4.51
2.77
1.04
-0.53
-1.88
-3.07
-4.21
-5.42
-6.73
-8.08
-9.32
-10.33
-11.00
-11.23
-11.03
-10.44
-9.60
-8.61
-7.59
-6.58
-5.61
-4.71
-3.92
-3.30
-2.85
-2.47
-1.97
-1.19
-0.07
1.25
2.52
3.43
3.75
3.44
2.59
1.38
0.05
-1.25
-2.39
-3.29
-3.94
-4.39
-4.78
-5.27
-6.06
-7.23
-8.80
-10.65
-12.60
-14.38
-15.81
-16.75
-17.21
-17.39
-17.56
-18.05
-19.05
-20.60
-22.49
-24.36
-25.83
-26.64
-26.70
-26.11
-25.11
-23.90
-22.58
-21.12
-19.41
-17.32
-14.80
-11.93
-8.89
-5.89
-3.10
-0.62
1.55
3.40
4.98
6.32
7.53
8.73
10.08
11.61
13.25
14.80
15.97
16.61
16.69
16.32
15.68
14.91
14.03
12.96
11.62
10.01
8.19
6.37
4.76
3.56
2.81
2.37
2.01
1.41
0.34
-1.31
-3.47
-5.96
-8.52
-10.87
-12.72
-13.86
-14.22
-13.89
-13.11
-12.25
-11.57
-11.20
-11.04
-10.86
-10.39
-9.49
-8.09
-6.28
-4.22
-2.13
-0.26
1.17
2.06
2.49
2.70
3.04
3.71
4.75
5.93
6.86
7.22
6.83
5.74
4.11
2.13
-0.08
-2.41
-4.75
-6.87
-8.44
-9.10
-8.66
-7.21
-5.18
-3.19
-1.82
-1.42
-1.93
-3.04
-4.33
-5.51
-6.48
-7.32
-8.07
-8.64
-8.71
-7.90
-5.99
-3.11
0.24
3.40
5.78
7.17
7.85
8.37
9.35
11.13
13.65
16.49
19.11
21.14
22.49
23.32
23.86
24.35
24.87
25.50
26.33
27.55
29.38
31.96
35.32
39.28
43.49
47.48
50.78
53.02
53.98
53.65
52.19
49.83
46.82
43.31
39.33
34.85
29.90
24.59
19.19
13.96
9.15
4.83
1.03
-2.19
-4.66
-6.01
-5.92
-4.31
-1.49
1.92
5.14
7.69
9.46
10.72
11.72
12.49
12.71
11.81
9.27
4.86
-1.22
-8.47
-16.22
-23.77
-30.57
-36.14
-40.14
-42.38
-42.86
-41.77
-39.52
-36.61
-33.65
-31.25
-29.97
-30.32
-32.60
-36.85
-42.82
-49.88
-57.23
-63.99
-69.49
-73.33
-75.48
-76.10
-75.50
-73.89
-71.50
-68.52
-65.18
-61.78
-58.53
-55.54
-52.75
-50.07
-47.57
-45.64
-44.92
-46.02
-49.03
-53.42
-58.11
-61.97
-64.40
-65.63
-66.63
-68.82
-73.39
-80.73
-90.35
-101.13
-111.72
-120.90
-127.67
-131.11
-130.40
-124.67
-113.12
-95.44
-72.11
-44.37
-13.93
17.58
49.07
79.35
107.47
133.00
156.14
177.53
198.37
219.84
243.35
270.16
299.93
331.27
362.28
390.56
412.95
426.26
427.21
414.42
388.79
351.25
303.37
248.27
190.43
134.59
85.22
43.72
9.06
-22.05
-56.07
-98.49
-149.94
-205.77
-259.05
-303.23
-336.71
-361.25
-367.88
-351.49
-316.62
-274.58
-233.41
-199.88
-166.18
-127.95
-86.18
-45.79
-12.89
5.70
8.18
-1.11
-14.65
-24.49
-27.22
-23.04
-14.60
-6.74
-3.23
-3.86
-4.66
-0.31
14.22
40.17
75.60
115.56
152.31
178.48
190.49
189.74
181.19
171.17
163.60
159.07
154.87
145.78
126.77
96.10
56.33
13.56
-24.42
-51.03
-62.47
-58.28
-41.12
-15.57
13.43
41.50
65.26
82.81
93.78
99.67
103.24
107.39
113.68
121.60
128.95
133.10
132.41
126.93
117.82
106.33
93.03
77.39
60.66
44.49
31.32
23.08
19.80
19.32
18.50
15.29
9.80
6.34
9.57
22.87
46.13
75.08
102.75
122.45
130.80
127.49
119.05
111.31
108.78
113.14
123.14
135.77
147.88
157.30
158.92
157.06
151.03
140.62
126.39
109.60
91.77
74.05
56.96
32.14
8.56
-16.14
-43.21
-72.31
-102.10
-131.37
-159.56
-186.53
-225.61
-261.98
-299.68
-340.87
-384.86
-429.31
-472.41
-513.66
-553.62
-610.88
-668.40
-735.40
-817.03
-911.11
-1008.44
-1096.53
-1163.40
-1091.60
-1017.96
-923.17
-820.57
-719.56
-622.00
-524.94
-427.08
-332.23
-248.10
-198.76
-116.40
15.11
180.52
346.80
488.61
596.60
671.66
718.40
730.53
730.48
716.48
689.01
652.39
613.24
576.56
544.28
515.78
481.50
449.81
413.70
369.78
319.58
267.78
218.64
178.76
148.36
122.33
103.94
87.96
71.30
54.01
38.24
25.97
17.80
12.74
8.54
6.26
3.44
-1.20
-7.37
-13.72
-18.87
-22.29
-24.57
-26.08
-27.12
-28.61
-31.01
-34.09
-37.15
-39.47
-40.87
-41.86
-42.88
-44.31
-46.43
-49.25
-52.59
-55.94
-58.55
-59.99
-60.23
-59.45
-58.30
-57.79
-58.77
-61.09
-64.22
-64.40
-58.55
-45.02
-24.51
0.17
25.12
46.58
61.92
69.79
69.89
62.55
49.40
33.39
18.74
9.41
7.31
11.41
18.29
23.83
25.00
21.33
14.29
6.47
-0.04
-4.23
-5.84
-4.50
0.46
9.63
23.18
40.35
59.94
80.33
99.95
116.29
128.51
136.45
140.15
141.56
139.80
134.42
125.35
113.04
98.54
83.02
67.71
53.67
41.71
31.96
24.68
19.83
17.32
16.98
18.04
19.75
21.41
22.47
22.16
20.67
18.14
14.84
11.02
5.86
-1.46
-11.46
-24.41
-40.68
-60.43
-83.75
-110.04
-137.75
-165.40
-190.11
-208.54
-218.21
-219.09
-213.52
-205.68
-199.83
-190.94
-177.46
-160.68
-144.25
-131.83
-125.50
-125.00
-128.70
-134.09
-138.93
-142.92
-145.99
-148.08
-149.06
-148.72
-146.38
-142.88
-136.82
-127.63
-116.48
-104.81
-93.90
-84.77
-78.26
-74.26
-72.69
-73.14
-75.46
-79.95
-86.41
-93.90
-100.43
-108.07
-116.27
-123.98
-129.75
-132.58
-131.96
-127.61
-119.29
-106.80
-90.06
-68.41
-41.77
-10.52
24.28
61.24
98.96
136.34
172.86
208.40
243.60
278.78
313.83
348.14
381.53
414.03
445.79
476.51
505.17
530.52
551.18
566.43
576.39
582.50
585.31
583.83
575.68
558.63
532.59
499.86
464.21
428.92
396.27
365.20
332.56
294.97
250.87
201.60
150.39
100.76
55.03
15.35
-18.20
-46.26
-69.56
-87.85
-99.61
-102.76
-95.73
-90.64
-95.55
-112.90
-138.01
-163.69
-184.69
-198.68
-205.74
-207.29
-205.70
-201.13
-197.72
-199.27
-208.87
-228.57
-258.95
-299.11
-346.68
-389.94
-415.52
-414.23
-384.46
-333.13
-272.60
-215.29
-169.54
-137.49
-116.28
-101.21
-89.03
-78.73
-70.98
-66.47
-64.46
-62.94
-59.78
-53.81
-45.86
-38.17
-33.06
-31.81
-34.15
-38.41
-42.58
-44.99
-45.02
-43.51
-42.17
-42.53
-45.30
-50.09
-55.54
-60.12
-62.54
-62.13
-59.19
-54.51
-48.92
-42.83
-36.75
-29.99
-22.14
-13.16
-3.41
6.30
15.05
22.02
26.84
29.47
30.27
29.60
27.85
25.33
22.25
18.74
14.83
10.69
6.40
2.07
-2.36
-6.95
-11.76
-16.88
-22.37
-28.31
-34.51
-40.84
-47.13
-53.30
-59.29
-65.00
-70.43
-75.58
-80.51
-84.98
-88.79
-91.73
-93.56
-93.98
-92.57
-88.81
-81.96
-73.46
-63.89
-53.66
-43.13
-32.56
-22.15
-12.09
-2.52
6.36
14.23
21.09
26.79
31.32
34.75
37.26
39.01
40.10
40.40
39.56
37.31
33.32
27.45
19.88
11.03
1.41
-8.39
-18.10
-27.71
-37.25
-46.77
-55.85
-63.55
-68.57
-69.60
-65.38
-55.36
-39.85
-19.63
3.94
30.12
58.70
89.85
123.97
162.23
205.59
254.39
307.93
363.22
416.43
463.07
498.93
521.36
531.15
531.02
524.41
514.09
500.23
482.77
461.66
437.26
410.73
385.05
362.62
344.42
329.71
315.01
297.91
277.12
252.31
214.03
157.67
82.66
-7.25
-96.64
-180.67
-257.95
-327.59
-389.06
-439.71
-475.95
-496.63
-503.50
-500.51
-493.65
-486.47
-480.13
-474.45
-468.78
-461.96
-453.56
-443.46
-431.30
-417.25
-400.16
-378.88
-353.47
-325.30
-296.08
-267.58
-241.06
-217.04
-196.32
-178.91
-164.65
-153.47
-145.08
-138.57
-132.79
-126.48
-118.72
-109.55
-99.29
-88.59
-78.24
-68.84
-60.46
-52.57
-43.97
-32.92
-17.67
3.22
30.16
61.98
95.97
128.25
154.79
172.32
179.27
176.03
164.82
149.16
133.15
120.56
114.00
114.35
120.62
130.24
139.93
146.63
148.34
144.40
135.48
123.07
108.98
94.85
81.89
70.74
61.45
53.73
47.04
40.87
34.92
29.27
24.26
20.47
18.54
18.94
21.90
27.25
34.51
42.94
51.70
60.03
67.30
73.10
77.19
79.50
80.04
78.97
76.56
73.30
69.85
66.85
64.85
63.93
63.76
63.63
62.84
60.91
57.81
53.83
49.45
45.01
40.66
36.30
31.82
27.14
22.35
17.62
13.12
9.01
5.38
2.26
-0.40
-2.71
-4.85
-7.06
-9.60
-12.66
-16.33
-20.46
-24.69
-28.43
-31.06
-32.10
-31.28
-28.69
-24.72
-19.92
-14.86
-10.05
-5.84
-2.40
0.22
2.07
3.29
4.06
4.57
5.00
5.46
6.05
6.82
7.84
9.11
10.65
12.36
14.04
15.48
16.47
16.96
17.03
16.88
16.69
16.52
16.28
15.80
14.95
13.71
12.20
10.50
8.64
6.52
3.98
0.96
-2.42
-5.83
-8.84
-11.11
-12.48
-13.04
-13.04
-12.71
-12.23
-11.58
-10.65
-9.32
-7.52
-5.35
-2.96
-0.55
1.75
3.84
5.67
7.20
8.34
9.01
9.14
8.73
7.89
6.80
5.65
4.58
3.64
2.81
2.02
1.22
0.41
-0.42
-1.24
-2.04
-2.86
-3.71
-4.64
-5.65
-6.71
-7.74
-8.66
-9.40
-10.01
-10.60
-11.29
-12.15
-13.08
-13.80
-13.97
-13.32
-11.79
-9.53
-6.88
-4.22
-1.81
0.20
1.85
3.25
4.48
5.60
6.50
7.10
7.32
7.22
6.99
6.92
7.23
8.02
9.17
10.42
11.46
12.11
12.33
12.26
12.04
11.82
11.57
11.21
10.61
9.71
8.56
7.32
6.13
5.11
4.33
3.74
3.25
2.73
2.02
0.98
-0.47
-2.30
-4.29
-6.16
-7.52
-8.08
-7.67
-6.29
-4.12
-1.47
1.36
4.12
6.69
9.12
11.53
14.04
16.70
19.44
22.18
24.88
27.59
30.37
33.29
36.27
39.14
41.69
43.78
45.45
46.98
48.87
51.69
55.85
61.39
67.89
74.63
80.89
86.39
91.49
97.08
104.14
113.27
124.30
136.50
148.95
160.99
172.48
183.60
194.70
206.19
218.55
232.43
248.08
264.54
278.72
285.46
278.59
253.08
207.03
142.54
64.75
-20.06
-106.57
-191.09
-271.07
-343.90
-406.24
-454.66
-487.07
-504.00
-508.59
-505.36
-498.29
-489.60
-479.64
-467.68
-452.81
-434.24
-410.95
-381.06
-341.91
-290.78
-226.31
-149.70
-64.97
21.68
103.42
174.35
230.73
271.32
297.04
310.22
313.80
310.79
304.08
296.41
290.28
287.33
287.73
289.68
289.61
283.30
267.56
241.53
207.12
168.38
130.11
96.51
70.40
53.07
44.45
43.51
48.50
57.10
66.68
74.61
78.79
77.92
71.60
59.80
42.93
21.83
-2.16
-27.37
-52.06
-74.98
-95.58
-114.06
-131.32
-148.21
-164.95
-181.02
-195.28
-206.40
-213.16
-214.71
-210.92
-203.27
-194.41
-187.55
-185.48
-189.52
-199.22
-212.24
-225.13
-230.78
-223.61
-200.94
-164.21
-118.38
-70.04
-25.46
11.36
39.06
58.27
70.14
75.70
75.94
71.32
61.77
45.94
21.99
-11.75
-55.55
-107.80
-164.37
-219.59
-265.39
-292.54
-297.47
-283.50
-259.27
-234.34
-215.07
-202.70
-194.70
-189.27
-184.08
-178.92
-174.19
-169.66
-164.04
-155.62
-143.22
-127.30
-109.46
-91.64
-75.81
-62.81
-52.14
-42.33
-31.77
-19.47
-5.36
9.97
25.80
41.20
55.69
69.23
82.02
94.13
105.29
114.93
122.59
128.23
132.00
134.29
135.46
135.66
134.82
132.89
130.34
128.42
129.13
134.48
145.70
162.67
183.73
206.31
228.04
247.80
266.11
284.57
304.62
326.29
347.38
363.46
368.75
357.20
323.78
265.82
184.31
85.14
-20.80
-118.93
-194.29
-235.90
-240.46
-213.57
-167.56
-116.87
-73.03
-41.48
-21.60
-9.14
0.27
8.91
16.67
22.47
26.13
29.04
33.60
41.78
53.80
67.86
81.01
90.79
96.35
98.80
100.45
103.54
109.01
116.19
123.30
128.63
131.52
132.70
133.73
136.09
140.26
145.54
150.48
153.76
154.88
154.29
153.00
151.80
150.75
149.08
145.70
139.73
130.95
120.11
109.02
100.52
97.87
103.72
118.47
139.02
158.62
168.48
160.74
131.61
83.18
22.94
-38.88
-92.76
-132.68
-157.13
-168.44
-171.35
-171.50
-174.32
-183.92
-201.75
-225.39
-248.16
-260.58
-253.64
-222.93
-171.45
-109.41
-50.72
-7.69
13.41
13.86
0.54
-18.09
-35.72
-49.68
-60.09
-68.52
-74.96
-77.70
-74.71
-65.39
-51.59
-37.06
-25.70
-19.78
-19.23
-22.93
-29.78
-39.39
-51.77
-66.13
-79.91
-88.56
-86.99
-69.82
-35.24
14.62
74.85
139.77
204.44
264.78
316.65
354.94
374.01
369.27
339.64
288.68
223.75
153.47
84.85
21.87
-34.48
-84.94
-130.49
-171.55
-208.48
-242.05
-273.60
-303.88
-331.67
-353.72
-365.88
-365.77
-354.56
-337.00
-319.57
-308.22
-306.78
-316.83
-338.20
-369.17
-406.06
-442.66
-470.83
-482.76
-474.10
-445.96
-404.53
-358.28
-314.21
-275.52
-241.70
-210.22
-178.66
-145.87
-111.73
-76.39
-39.84
-1.78
37.90
78.87
120.43
161.68
202.05
241.48
280.57
320.30
361.43
403.71
445.19
482.39
510.99
527.22
529.10
516.87
492.60
459.18
419.30
374.91
327.46
278.45
229.87
184.12
143.44
109.09
81.00
57.87
37.81
19.26
1.60
-14.66
-28.04
-36.84
-39.96
-37.48
-31.03
-23.69
-19.41
-21.96
-33.71
-54.56
-81.54
-109.57
-133.10
-148.10
-153.30
-150.26
-142.21
-132.36
-122.68
-113.80
-105.59
-98.04
-91.63
-87.08
-84.75
-84.23
-84.42
-84.16
-82.75
-80.36
-77.83
-76.17
-76.02
-77.27
-79.14
-80.40
-79.89
-76.97
-71.84
-65.47
-59.27
-54.61
-52.27
-52.23
-53.79
-55.91
-57.66
-58.57
-58.78
-58.99
-60.26
-63.71
-70.18
-79.87
-92.01
-104.87
-116.05
-123.18
-124.67
-120.40
-111.77
-101.25
-91.46
-84.21
-80.00
-77.88
-76.08
-72.63
-66.14
-56.19
-43.40
-29.12
-14.83
-1.51
10.76
22.84
36.01
51.18
68.28
85.94
101.90
113.69
119.42
118.20
110.21
96.51
78.69
58.56
37.72
17.14
-3.09
-23.67
-45.44
-68.38
-90.88
-109.57
-120.28
-119.32
-104.66
-76.37
-36.34
12.34
65.52
118.03
163.80
196.58
211.60
207.25
186.04
154.00
118.63
86.48
61.32
43.89
32.89
26.50
23.56
23.67
26.70
32.11
38.65
44.70
48.87
50.61
50.38
49.37
48.86
49.66
51.86
54.80
57.50
59.04
58.75
56.37
51.87
45.30
36.75
26.42
14.69
2.33
-9.53
-19.51
-26.25
-28.93
-27.58
-23.35
-18.26
-14.65
-14.45
-18.50
-26.30
-36.32
-46.65
-55.72
-62.72
-67.48
-70.11
-70.58
-68.67
-64.18
-57.28
-48.60
-38.83
-28.16
-15.68
0.45
22.30
50.89
85.23
121.99
156.38
183.62
200.53
206.38
202.71
192.38
178.19
162.07
144.84
126.67
107.75
88.67
70.35
53.68
39.15
26.68
15.91
6.56
-1.35
-7.40
-11.16
-12.53
-12.01
-10.67
-9.82
-10.50
-13.11
-17.18
-21.64
-25.27
-27.17
-27.13
-25.59
-23.42
-21.48
-20.34
-20.15
-20.75
-21.87
-23.27
-24.77
-26.30
-27.78
-29.11
-30.13
-30.67
-30.57
-29.68
-27.97
-25.48
-22.33
-18.68
-14.66
-10.40
-5.97
-1.56
2.59
6.15
8.83
10.44
11.03
10.83
10.15
9.32
8.56
7.96
7.53
7.24
7.07
7.00
6.97
6.90
6.74
6.40
5.92
5.41
5.00
4.75
4.55
4.13
3.17
1.45
-0.96
-3.67
-6.01
-7.28
-7.04
-5.23
-2.25
1.20
4.41
6.88
8.47
9.31
9.63
9.61
9.33
8.81
8.12
7.46
7.11
7.30
8.02
9.05
9.96
10.37
10.12
9.31
8.23
7.17
6.26
5.44
4.55
3.51
2.35
1.22
0.25
-0.58
-1.39
-2.43
-3.83
-5.58
-7.44
-8.99
-9.82
-9.67
-8.46
-6.38
-3.80
-1.11
1.37
3.46
5.15
6.45
7.37
7.85
7.82
7.28
6.33
5.18
4.09
3.23
2.66
2.33
2.10
1.83
1.39
0.80
0.13
-0.47
-0.85
-0.90
-0.67
-0.32
-0.08
-0.15
-0.62
-1.44
-2.46
-3.58
-4.73
-5.87
-6.96
-7.83
-8.25
-8.01
-7.02
-5.39
-3.41
-1.44
0.27
1.58
2.52
3.20
3.67
3.95
3.98
3.75
3.34
2.94
2.78
3.02
3.69
4.69
5.83
6.88
7.67
8.07
8.02
7.47
6.47
5.12
3.58
2.05
0.66
-0.47
-1.35
-2.02
-2.60
-3.19
-3.89
-4.71
-5.50
-5.99
-5.87
-4.95
-3.26
-1.13
0.98
2.67
3.70
4.16
4.30
4.38
4.60
4.99
5.44
5.84
6.06
6.09
5.97
5.79
5.61
5.52
5.54
5.69
5.95
6.27
6.56
6.71
6.61
6.22
5.55
4.67
3.66
2.60
1.45
0.16
-1.36
-3.14
-5.05
-6.87
-8.28
-8.98
-8.79
-7.71
-5.93
-3.81
-1.76
-0.04
1.24
2.14
2.83
3.37
3.76
3.86
3.57
2.92
2.07
1.28
0.77
0.63
0.80
1.10
1.34
1.44
1.43
1.36
1.28
1.16
0.94
0.54
-0.05
-0.78
-1.58
-2.38
-3.14
-3.88
-4.66
-5.50
-6.40
-7.29
-7.99
-8.26
-7.89
-6.75
-4.94
-2.78
-0.68
0.99
2.08
2.72
3.17
3.64
4.14
4.53
4.57
4.17
3.45
2.72
2.28
2.29
2.70
3.24
3.61
3.64
3.29
2.68
2.00
1.40
0.92
0.48
-0.04
-0.75
-1.65
-2.62
-3.49
-4.14
-4.61
-5.05
-5.69
-6.61
-7.72
-8.70
-9.14
-8.77
-7.52
-5.62
-3.46
-1.47
0.06
1.02
1.51
1.70
1.78
1.86
1.96
2.07
2.18
2.28
2.43
2.67
2.97
3.21
3.24
3.01
2.55
2.06
1.70
1.55
1.51
1.37
0.95
0.20
-0.77
-1.71
-2.45
-2.91
-3.16
-3.36
-3.68
-4.21
-4.99
-5.99
-7.06
-7.98
-8.46
-8.24
-7.21
-5.52
-3.47
-1.47
0.18
1.36
2.14
2.66
3.05
3.30
3.37
3.23
2.93
2.61
2.38
2.33
2.42
2.55
2.64
2.63
2.55
2.43
2.27
2.06
1.77
1.40
0.99
0.61
0.34
0.20
0.12
0.00
-0.24
-0.60
-1.01
-1.37
-1.66
-1.92
-2.29
-2.91
-3.78
-4.79
-5.69
-6.23
-6.26
-5.84
-5.16
-4.43
-3.78
-3.18
-2.54
-1.74
-0.79
0.18
0.95
1.36
1.35
1.04
0.68
0.49
0.57
0.86
1.18
1.34
1.27
1.05
0.84
0.77
0.81
0.81
0.55
-0.15
-1.29
-2.70
-4.12
-5.27
-6.06
-6.54
-6.88
-7.27
-7.86
-8.67
-9.61
-10.53
-11.25
-11.63
-11.61
-11.17
-10.38
-9.30
-8.06
-6.74
-5.44
-4.25
-3.26
-2.56
-2.24
-2.33
-2.81
-3.50
-4.19
-4.72
-5.03
-5.22
-5.52
-6.14
-7.19
-8.64
-10.35
-12.16
-14.04
-16.07
-18.37
-21.02
-23.99
-27.14
-30.27
-33.22
-35.94
-38.52
-41.11
-43.89
-46.95
-50.22
-53.47
-56.36
-58.48
-59.47
-58.96
-56.63
-52.19
-45.46
-36.44
-25.38
-12.88
0.25
13.12
24.94
35.22
43.74
50.51
55.60
59.06
60.96
61.40
60.62
58.99
56.91
54.67
52.41
50.07
47.56
44.82
41.90
38.98
36.25
33.80
31.63
29.61
27.57
25.39
23.04
20.63
18.36
16.43
14.93
13.84
12.99
12.16
11.22
10.11
8.89
7.66
6.55
5.68
5.14
4.98
5.20
5.72
6.38
6.98
7.34
7.41
7.20
6.85
6.46
6.08
5.68
5.22
4.73
4.26
3.92
3.78
3.81
3.90
3.92
3.82
3.60
3.37
3.21
3.10
2.94
2.56
1.93
1.13
0.39
-0.05
0.00
0.55
1.48
2.55
3.56
4.34
4.82
4.97
4.76
4.20
3.40
2.57
2.00
1.95
2.66
4.12
6.08
8.15
9.94
11.30
12.27
13.12
14.06
15.54
17.68
20.37
23.38
26.46
29.54
32.70
36.06
39.59
43.86
49.12
55.39
62.38
69.68
76.85
83.60
89.81
95.41
101.53
109.06
118.45
129.56
141.73
154.10
165.92
176.90
187.33
199.69
216.68
240.30
270.88
306.57
343.72
378.21
406.97
418.45
405.62
365.43
299.61
214.30
118.25
20.44
-71.74
-153.24
-221.38
-273.89
-310.33
-331.85
-340.84
-340.33
-333.43
-322.80
-310.40
-297.71
-284.69
-271.23
-257.34
-243.23
-229.24
-215.76
-203.14
-191.62
-181.45
-172.09
-162.99
-153.66
-143.80
-133.34
-122.54
-111.80
-101.53
-92.09
-83.38
-75.35
-68.07
-61.71
-56.35
-51.80
-47.55
-42.94
-37.56
-31.41
-25.09
-19.45
-15.19
-12.51
-11.09
-10.34
-9.74
-9.14
-8.60
-8.30
-8.21
-8.14
-7.78
-6.93
-5.52
-3.52
-0.74
3.34
9.30
17.55
27.97
39.74
51.41
61.41
68.56
72.36
72.97
70.81
66.14
58.97
49.36
37.65
25.12
13.58
5.14
1.26
2.09
6.18
11.28
15.22
16.48
14.91
11.37
6.94
2.33
-2.45
-7.94
-14.53
-22.10
-30.26
-38.35
-45.81
-52.48
-58.45
-63.39
-67.78
-72.18
-75.63
-77.40
-76.91
-73.92
-68.72
-61.90
-54.34
-47.00
-40.43
-34.75
-29.84
-25.34
-20.92
-16.54
-12.31
-8.51
-5.53
-3.45
-1.91
-0.33
2.01
6.24
11.99
18.70
25.49
31.31
35.51
37.86
38.43
37.47
35.26
32.03
28.23
24.65
21.99
20.63
20.19
19.54
17.28
12.50
5.06
-4.17
-14.28
-24.74
-35.31
-45.34
-53.23
-56.47
-52.62
-41.07
-23.73
-5.46
7.61
10.64
2.47
-13.76
-32.08
-46.35
-52.86
-50.59
-41.29
-28.00
-13.77
-0.99
8.58
13.86
15.28
15.21
19.66
34.40
60.39
91.55
116.69
124.89
111.13
81.24
44.39
12.02
-7.30
-10.87
-1.64
14.25
30.37
41.71
45.56
40.99
28.90
10.72
-12.12
-38.17
-65.86
-91.44
-111.63
-124.62
-130.80
-131.97
-130.81
-129.51
-128.38
-125.48
-117.77
-103.04
-81.00
-53.80
-25.08
0.80
20.21
31.59
35.89
36.18
36.77
42.35
56.52
80.58
112.26
146.30
176.70
198.56
208.86
206.72
193.19
170.88
143.31
114.03
86.53
64.72
51.84
47.97
50.21
53.67
53.67
46.81
31.32
6.96
-24.30
-59.33
-96.49
-134.10
-170.17
-202.03
-221.45
-223.97
-215.25
-206.87
-206.95
-217.20
-232.45
-245.65
-251.05
-252.64
-251.56
-248.19
-239.71
-220.89
-189.51
-145.14
-89.85
-25.40
45.55
114.75
170.79
206.66
236.82
268.83
306.51
340.57
366.01
379.74
381.33
372.97
359.36
345.37
331.35
316.02
296.99
273.68
246.17
216.10
186.46
160.90
141.91
127.71
115.43
102.00
86.63
69.46
51.44
33.72
16.97
0.91
-16.72
-37.52
-61.79
-87.67
-112.82
-135.30
-154.29
-170.34
-185.01
-200.37
-217.32
-235.32
-252.60
-267.53
-279.28
-287.84
-293.64
-297.19
-298.67
-297.95
-294.87
-289.03
-279.65
-265.67
-245.89
-219.74
-187.94
-152.04
-114.65
-78.80
-47.28
-22.06
-3.93
8.07
17.00
27.55
45.01
72.13
107.18
144.46
177.05
200.26
214.03
222.69
227.49
229.20
226.43
215.78
194.89
165.32
132.72
104.29
85.06
75.71
73.71
74.88
75.44
74.06
71.49
69.07
67.42
65.94
63.24
58.44
51.70
43.45
34.79
26.86
19.99
13.69
6.95
-1.11
-10.45
-20.11
-29.66
-38.39
-46.09
-53.63
-62.89
-76.59
-97.91
-129.86
-167.38
-205.66
-238.10
-257.91
-260.87
-246.47
-218.31
-182.70
-145.98
-111.70
-80.41
-49.25
-14.30
26.07
71.47
119.45
166.11
207.14
239.11
259.31
266.69
261.49
243.44
214.18
176.79
134.70
90.35
44.90
-2.24
-51.80
-103.44
-156.29
-205.07
-241.73
-258.98
-253.78
-228.35
-189.61
-146.01
-93.65
-38.80
8.80
43.28
65.48
79.04
86.74
88.69
83.70
70.23
45.98
12.37
-27.04
-66.96
-102.22
-128.72
-144.56
-149.46
-144.96
-135.67
-126.12
-120.51
-122.56
-135.40
-156.23
-181.33
-203.68
-214.46
-206.74
-177.11
-128.16
-68.51
-10.07
36.84
67.45
84.65
96.24
109.28
126.52
145.08
159.13
164.32
161.59
157.05
159.29
174.36
202.04
236.50
269.88
296.80
315.56
326.85
330.59
325.16
307.96
277.40
234.83
184.07
130.10
76.51
25.26
-21.95
-61.21
-87.06
-95.75
-88.64
-73.14
-58.86
-53.54
-59.21
-71.67
-82.54
-84.48
-75.13
-57.52
-37.35
-18.16
-0.41
17.61
33.06
41.59
40.59
30.38
14.42
-9.91
-42.28
-77.81
-106.70
-117.52
-100.93
-53.70
19.18
105.18
187.73
252.36
289.50
295.94
274.12
231.08
176.41
120.24
71.86
38.52
24.96
31.10
51.59
76.99
97.28
105.01
97.14
74.86
41.70
2.34
-38.59
-75.93
-103.77
-116.11
-109.35
-84.84
-49.55
-13.78
13.25
26.57
26.68
17.69
4.34
-10.58
-26.78
-45.16
-65.85
-87.39
-107.17
-123.08
-134.83
-144.09
-153.88
-167.89
-189.68
-222.00
-265.80
-318.89
-375.36
-426.16
-461.40
-473.60
-460.35
-424.87
-374.48
-317.34
-259.43
-203.36
-148.87
-94.69
-40.15
14.64
69.76
126.70
188.29
257.06
332.60
409.76
479.13
529.71
552.97
546.62
515.58
469.75
419.96
374.17
335.65
303.78
275.88
249.24
222.36
194.60
165.20
132.89
96.83
58.23
21.20
-8.25
-25.12
-27.74
-19.04
-6.13
2.35
-0.09
-15.28
-40.34
-70.05
-101.15
-131.55
-159.87
-185.07
-206.55
-224.23
-238.75
-251.62
-265.27
-285.65
-315.90
-354.65
-397.70
-441.61
-485.10
-528.22
-570.49
-609.36
-645.07
-673.36
-686.20
-676.86
-645.03
-596.77
-540.81
-484.23
-430.66
-387.81
-357.82
-336.99
-319.66
-302.97
-287.03
-272.80
-260.44
-206.73
-102.38
26.35
140.71
219.69
262.83
279.00
278.23
268.23
256.13
238.32
213.00
183.44
155.65
133.85
119.97
112.13
109.09
109.95
108.38
101.32
90.54
80.29
73.34
70.09
69.58
71.03
73.78
73.76
69.08
61.07
52.73
46.24
42.23
40.37
40.35
41.80
42.60
41.75
39.92
38.73
39.42
42.48
47.75
54.93
63.50
72.17
80.17
87.50
94.86
103.05
112.72
124.19
137.47
152.26
167.85
183.50
198.54
212.65
225.96
239.22
253.75
271.16
292.59
317.71
344.17
367.60
382.62
384.42
370.53
341.71
301.81
256.48
211.46
171.14
137.96
112.72
95.16
84.50
79.45
77.95
77.24
74.66
68.72
59.95
50.82
44.57
43.62
48.34
57.19
67.81
78.16
87.07
93.69
96.80
94.63
85.74
70.21
50.62
31.63
18.33
14.18
19.65
32.00
46.32
57.30
60.79
54.89
40.17
19.09
-4.86
-28.30
-48.68
-64.74
-76.33
-83.87
-88.05
-89.71
-89.87
-89.63
-89.82
-90.71
-91.70
-91.96
-91.20
-90.42
-91.92
-98.62
-112.77
-134.85
-163.22
-194.38
-224.09
-248.29
-263.70
-267.90
-259.30
-237.30
-202.26
-155.61
-99.50
-37.36
25.88
84.20
131.70
164.04
179.61
179.95
168.98
152.48
135.57
121.57
112.05
107.74
108.82
114.54
122.91
130.99
137.86
143.24
147.03
149.00
148.62
145.14
137.94
127.44
115.86
109.99
116.06
136.48
168.91
207.62
245.32
274.52
288.59
282.82
259.22
222.31
177.24
129.31
84.78
49.93
29.26
23.80
6.57
-37.13
-103.95
-176.59
-238.75
-283.27
-311.14
-327.17
-336.79
-343.99
-346.50
-339.17
-319.52
-288.97
-251.62
-212.84
-177.39
-148.13
-125.55
-104.57
-77.27
-36.86
15.67
77.39
144.70
215.05
286.90
358.42
412.82
433.69
412.68
355.34
278.33
200.21
135.11
89.71
63.37
51.42
48.47
51.74
59.23
68.72
77.08
80.86
76.85
62.28
39.81
13.71
-11.76
-34.27
-53.90
-72.56
-92.31
-114.36
-138.62
-163.88
-187.85
-208.21
-224.16
-236.87
-249.01
-263.50
-282.12
-304.39
-327.22
-345.37
-353.08
-346.62
-325.92
-294.65
-258.72
-223.99
-194.35
-170.76
-151.90
-135.32
-119.04
-102.39
-85.67
-69.50
-54.10
-39.18
-24.25
-9.27
5.14
17.74
27.10
32.29
33.32
31.23
27.63
24.15
21.79
20.67
20.26
19.75
18.56
16.57
14.09
11.59
9.37
7.36
5.18
2.41
-1.17
-5.33
-9.47
-12.83
-14.81
-15.26
-14.58
-13.57
-13.11
-13.88
-16.09
-19.45
-23.30
-26.77
-29.05
-29.55
-28.04
-24.69
-19.97
-14.50
-8.89
-3.59
1.08
5.00
8.07
10.26
11.62
12.31
12.61
12.88
13.38
14.19
15.15
15.98
16.43
16.48
16.27
16.05
15.97
15.99
15.88
15.40
14.49
13.28
12.03
10.97
10.04
8.94
7.24
4.61
1.00
-3.27
-7.73
-11.89
-15.45
-18.30
-20.44
-21.80
-22.18
-21.28
-18.90
-15.11
-10.33
-5.23
-0.51
3.36
6.24
8.27
9.68
10.65
11.21
11.29
10.85
9.96
8.87
7.93
7.48
7.76
8.81
10.42
12.20
13.67
14.42
14.25
13.20
11.47
9.32
6.92
4.33
1.50
-1.57
-4.76
-7.83
-10.56
-12.84
-14.79
-16.71
-18.86
-21.32
-23.81
-25.75
-26.48
-25.52
-22.80
-18.67
-13.79
-8.80
-4.11
0.15
4.01
7.46
10.33
12.38
13.43
13.55
13.06
12.41
11.99
11.99
12.37
12.94
13.49
13.86
13.98
13.83
13.44
12.83
12.04
11.01
9.66
7.89
5.71
3.28
0.91
-1.14
-2.74
-4.06
-5.42
-7.18
-9.55
-12.47
-15.67
-18.76
-21.35
-23.06
-23.61
-22.85
-20.76
-17.57
-13.58
-9.21
-4.75
-0.40
3.76
7.67
11.23
14.29
16.74
18.54
19.79
20.63
21.22
21.60
21.73
21.54
20.99
20.15
19.20
18.32
17.65
17.20
16.85
16.37
15.57
14.32
12.64
10.64
8.49
6.27
3.98
1.51
-1.31
-4.60
-8.41
-12.64
-17.08
-21.36
-24.98
-27.44
-28.29
-27.32
-24.63
-20.65
-15.95
-11.08
-6.28
-1.58
3.15
7.98
12.76
17.13
20.67
23.11
24.52
25.30
25.93
26.84
28.16
29.76
31.36
32.74
33.81
34.58
35.11
35.32
35.06
34.11
32.40
30.15
27.76
25.75
24.42
23.76
23.44
22.98
21.96
20.22
17.88
15.27
12.85
11.06
10.17
10.27
11.23
12.72
14.35
15.82
17.08
18.39
20.15
22.75
26.26
30.42
34.68
38.48
41.49
43.81
45.83
47.99
50.56
53.47
56.36
58.79
60.45
61.26
61.29
60.68
59.45
57.47
54.59
50.69
45.73
39.80
32.98
25.34
16.95
8.02
-1.06
-9.77
-17.60
-24.34
-30.34
-36.42
-43.58
-52.46
-62.91
-73.79
-83.42
-90.11
-92.91
-91.88
-88.00
-82.65
-77.06
-72.01
-67.73
-64.12
-60.96
-57.94
-54.75
-51.06
-46.52
-40.97
-34.51
-27.54
-20.64
-14.27
-8.70
-3.85
0.45
4.36
7.83
10.67
12.43
12.30
9.00
0.97
-13.05
-33.23
-57.91
-83.72
-106.49
-122.72
-130.83
-131.65
-127.69
-121.71
-115.61
-109.66
-103.29
-95.90
-87.56
-78.86
-70.52
-62.88
-55.71
-48.49
-40.66
-32.27
-24.12
-17.25
-12.17
-8.18
-3.41
4.66
18.01
37.59
62.13
88.46
112.79
132.22
145.60
153.38
156.66
156.36
154.17
150.87
146.47
141.00
135.25
130.49
127.54
126.03
124.56
124.08
124.86
126.14
126.78
126.51
126.04
126.09
126.79
127.70
132.59
143.59
159.82
178.43
197.32
216.46
237.21
260.99
288.07
322.15
362.03
400.52
427.62
436.30
425.65
400.00
366.24
296.53
184.71
48.48
-81.45
-183.39
-251.98
-291.86
-310.72
-316.02
-313.94
-303.54
-284.81
-260.55
-235.68
-213.65
-195.34
-180.11
-167.33
-156.76
-144.24
-127.60
-107.81
-88.36
-71.87
-59.15
-49.79
-43.27
-39.29
-34.98
-28.57
-20.03
-11.33
-3.72
2.65
8.13
12.94
16.95
21.25
26.55
33.06
39.58
45.52
50.67
54.69
56.67
55.05
48.27
34.01
16.68
-2.36
-21.90
-41.08
-59.68
-78.23
-97.68
-119.07
-143.17
-169.97
-199.53
-230.13
-258.74
-281.39
-294.58
-295.97
-285.08
-263.09
-232.15
-195.88
-157.94
-121.92
-90.79
-66.26
-48.39
-35.70
-26.05
-17.52
-9.58
-1.97
5.89
15.44
28.14
43.92
59.82
70.41
70.20
56.29
30.82
0.31
-27.39
-46.83
-57.32
-62.40
-67.18
-74.62
-84.08
-91.69
-93.23
-87.06
-75.31
-62.60
-53.29
-48.99
-47.82
-45.83
-39.43
-27.60
-12.34
2.63
13.89
19.92
21.44
20.58
19.38
18.85
18.87
18.69
17.92
16.89
16.52
17.87
21.40
26.75
32.79
38.23
42.13
44.52
46.49
49.71
55.70
64.87
75.98
86.61
94.29
97.60
96.79
93.35
89.14
85.35
82.23
79.34
76.19
72.50
68.19
63.14
57.29
50.80
44.36
39.06
35.97
35.57
37.53
41.02
45.37
50.36
56.03
62.18
68.01
72.14
73.22
70.62
64.97
58.00
51.73
47.50
45.33
44.00
41.59
36.39
27.52
15.33
1.22
-12.62
-23.70
-29.93
-30.28
-25.44
-17.94
-11.09
-7.69
-8.50
-11.81
-14.51
-13.97
-9.79
-4.23
-0.94
-3.19
-12.29
-27.43
-46.50
-67.46
-89.00
-110.51
-131.65
-152.24
-172.53
-193.49
-216.71
-243.42
-273.66
-305.66
-336.26
-362.04
-380.12
-388.76
-387.20
-375.32
-353.51
-322.97
-285.67
-244.32
-201.89
-161.11
-124.37
-93.75
-70.67
-55.59
-47.41
-43.69
-41.50
-38.79
-35.13
-31.64
-29.69
-29.58
-29.92
-28.22
-22.33
-11.81
1.86
15.97
27.99
36.54
41.76
44.80
47.14
49.95
53.69
58.18
62.80
67.01
70.74
74.45
79.07
85.62
94.95
107.54
123.77
143.78
167.30
193.05
218.41
239.71
253.17
256.27
248.74
232.62
211.25
187.88
164.69
142.68
122.54
105.51
93.67
89.38
94.19
107.94
128.53
152.48
176.08
196.31
211.58
221.95
228.77
234.02
239.58
246.55
254.82
263.08
269.21
270.69
265.31
251.60
229.47
200.72
168.94
138.81
114.76
99.59
93.67
95.08
100.64
106.93
111.12
111.24
105.99
94.78
77.91
56.79
33.82
11.64
-7.83
-24.12
-38.37
-52.50
-68.12
-85.71
-104.35
-122.18
-137.34
-148.70
-156.22
-160.97
-164.79
-169.81
-178.03
-190.66
-207.65
-227.29
-246.38
-260.81
-266.80
-261.89
-245.50
-218.60
-182.92
-139.96
-90.84
-36.64
20.74
78.19
131.62
177.05
211.73
234.94
247.75
252.04
249.49
240.68
225.30
202.88
173.80
139.73
103.54
68.45
37.00
10.54
-10.89
-28.02
-41.77
-52.76
-61.29
-67.55
-72.01
-75.72
-80.11
-86.49
-95.25
-105.37
-114.55
-120.17
-120.40
-115.26
-106.63
-97.47
-90.54
-87.42
-88.16
-91.83
-97.17
-103.11
-108.82
-113.42
-115.79
-114.63
-108.54
-96.55
-78.20
-53.84
-24.63
7.42
39.79
70.06
96.57
118.92
137.89
154.78
170.60
185.55
198.86
209.29
215.61
217.00
213.16
204.19
190.54
173.14
153.42
133.28
114.73
99.30
87.47
78.45
70.31
60.84
48.26
32.06
13.14
-6.54
-24.85
-40.37
-52.85
-63.17
-72.65
-82.29
-92.22
-101.76
-109.90
-115.97
-120.00
-122.48
-124.11
-125.39
-126.71
-128.91
-133.60
-143.29
-160.69
-187.74
-224.83
-270.81
-323.88
-382.55
-445.88
-512.61
-579.68
-641.53
-690.68
-720.00
-725.48
-707.73
-671.79
-625.02
-574.68
-526.15
-482.59
-445.42
-414.93
-390.50
-370.47
-352.32
-333.20
-310.93
-284.71
-255.00
-222.82
-188.91
-153.16
-114.84
-73.15
-27.77
21.07
72.73
126.58
182.21
239.33
297.73
357.35
418.21
480.40
543.41
605.32
662.32
709.17
740.80
754.39
750.68
733.74
709.24
682.02
654.42
626.31
596.42
564.10
530.28
497.06
466.51
439.55
415.75
393.85
372.46
350.37
326.28
298.79
266.64
229.51
188.82
147.78
110.31
79.51
56.13
38.29
22.39
4.82
-16.41
-40.95
-66.51
-90.05
-109.11
-122.51
-130.39
-133.54
-132.85
-129.02
-122.71
-114.83
-106.69
-99.64
-94.66
-91.86
-90.49
-89.28
-87.15
-83.61
-78.83
-73.21
-67.02
-60.23
-52.74
-44.79
-37.21
-31.18
-27.85
-27.86
-31.17
-37.13
-44.85
-53.44
-62.19
-70.45
-77.53
-82.64
-85.18
-84.97
-82.57
-79.14
-76.08
-74.43
-74.37
-75.29
-76.02
-75.47
-73.14
-69.20
-64.40
-59.65
-55.67
-52.79
-50.84
-49.24
-47.19
-43.83
-38.65
-31.72
-23.75
-15.79
-8.75
-2.93
2.10
7.19
12.95
19.35
25.64
30.76
33.94
35.16
35.11
34.82
35.14
36.44
38.63
41.49
44.85
48.68
52.80
56.71
59.43
59.78
56.87
50.52
41.47
31.13
21.04
12.29
5.16
-0.83
-6.51
-12.61
-19.52
-27.21
-35.35
-43.62
-51.73
-59.50
-66.70
-73.00
-77.82
-80.37
-79.67
-74.72
-64.80
-49.89
-30.95
-9.85
11.04
29.64
44.72
56.16
64.66
71.08
75.86
78.91
79.87
78.66
75.89
72.66
70.17
69.17
69.63
70.90
71.96
71.87
69.98
66.02
60.09
52.61
44.15
35.29
26.40
17.59
8.69
-0.54
-10.29
-20.63
-31.54
-43.04
-55.11
-67.55
-79.84
-91.16
-100.65
-107.76
-112.40
-114.79
-115.21
-113.82
-110.61
-105.67
-99.39
-92.39
-85.28
-78.38
-71.55
-64.44
-56.76
-48.61
-40.43
-32.79
-26.12
-20.48
-15.64
-11.30
-7.19
-3.24
0.47
3.82
6.68
8.93
10.57
11.58
12.03
11.94
11.28
9.93
7.70
4.48
0.32
-4.64
-10.17
-16.14
-22.50
-29.25
-36.22
-43.00
-48.97
-53.47
-56.09
-56.84
-56.10
-54.42
-52.26
-49.82
-46.99
-43.58
-39.47
-34.79
-29.87
-25.13
-20.95
-17.51
-14.75
-12.51
-10.54
-8.67
-6.86
-5.17
-3.75
-2.77
-2.31
-2.35
-2.75
-3.36
-4.05
-4.87
-5.89
-7.23
-8.88
-10.69
-12.43
-13.91
-15.02
-15.87
-16.69
-17.82
-19.50
-21.89
-24.94
-28.50
-32.32
-36.09
-39.49
-42.22
-43.98
-44.62
-44.11
-42.63
-40.45
-37.89
-35.20
-32.42
-29.35
-25.59
-20.75
-14.63
-7.41
0.32
7.70
13.87
18.25
20.72
21.61
21.46
20.79
19.90
18.77
17.21
15.08
12.34
9.19
5.85
2.48
-0.92
-4.47
-8.18
-11.87
-15.05
-17.15
-17.78
-16.97
-15.23
-13.31
-11.92
-11.45
-11.92
-13.12
-14.91
-17.28
-20.31
-23.95
-27.80
-31.12
-33.03
-32.82
-30.21
-25.46
-19.23
-12.37
-5.67
0.33
5.43
9.71
13.43
16.82
19.95
22.66
24.62
25.56
25.51
24.81
24.07
23.83
24.24
25.05
25.74
25.84
25.21
24.10
22.91
21.92
21.10
20.13
18.61
16.37
13.60
10.80
8.54
7.27
7.00
7.33
7.58
7.15
5.76
3.55
0.89
-1.83
-4.42
-6.89
-9.39
-11.81
-13.61
-13.85
-11.53
-6.05
2.51
13.50
25.84
38.38
50.18
60.62
69.36
76.16
80.83
83.38
84.59
85.64
87.61
91.10
96.09
102.05
108.10
113.38
117.31
120.61
124.17
128.20
131.80
133.34
131.29
124.49
112.68
96.60
79.01
62.89
50.14
40.98
34.66
30.14
25.97
20.58
12.83
4.14
-2.83
-5.47
-2.08
8.18
25.68
49.51
77.62
97.13
97.38
75.53
37.51
-8.37
-55.71
-99.46
-135.72
-161.77
-176.71
-180.25
-173.91
-160.81
-144.70
-130.19
-117.18
-105.21
-94.12
-83.81
-72.93
-60.28
-45.62
-29.92
-14.89
-2.02
7.45
12.87
15.71
19.28
26.53
37.87
50.36
59.36
61.56
55.47
41.25
21.25
-0.76
-21.90
-41.06
-56.44
-67.80
-76.31
-79.04
-75.29
-66.47
-55.78
-47.48
-44.52
-50.86
-63.81
-79.07
-92.50
-102.29
-109.12
-111.03
-109.16
-104.80
-98.41
-89.42
-77.76
-64.03
-49.59
-35.10
-19.76
-2.26
18.98
44.56
73.79
104.53
134.63
162.59
188.15
211.68
232.77
250.35
262.98
269.77
270.77
267.50
262.28
257.37
253.95
251.35
247.62
240.27
227.18
207.02
179.62
145.70
106.64
64.29
20.90
-20.82
-57.98
-88.25
-110.73
-126.02
-135.85
-142.13
-146.20
-148.64
-149.52
-149.01
-147.76
-146.96
-147.77
-150.89
-155.93
-161.43
-165.15
-164.81
-159.03
-148.31
-135.49
-125.16
-121.94
-128.18
-142.28
-158.91
-171.14
-173.62
-164.90
-147.67
-126.63
-105.42
-84.16
-58.95
-23.90
25.71
90.31
164.95
240.43
306.36
354.71
382.10
390.02
383.19
366.96
345.25
319.99
291.80
260.92
227.77
192.86
156.61
119.41
82.03
45.97
13.33
-14.10
-35.63
-52.15
-65.74
-78.79
-93.26
-110.23
-130.03
-152.22
-175.58
-198.05
-216.93
-229.60
-234.30
-230.54
-218.89
-200.38
-176.05
-147.10
-115.26
-83.17
-54.45
-32.87
-21.31
-20.58
-28.94
-42.52
-56.63
-67.30
-72.74
-73.71
-72.70
-72.76
-75.93
-82.55
-91.28
-99.83
-105.85
-107.58
-104.03
-94.77
-79.80
-59.52
-34.96
-8.07
18.01
39.24
51.68
52.91
43.52
27.58
11.71
2.44
3.24
12.60
24.60
31.72
28.51
14.18
-7.36
-29.63
-46.69
-55.55
-56.53
-52.14
-45.21
-37.59
-29.71
-21.02
-10.50
2.95
20.12
41.15
64.92
88.86
109.09
121.51
123.13
113.25
93.61
67.65
38.97
10.05
-17.75
-43.70
-66.94
-86.29
-100.97
-111.49
-119.92
-129.00
-140.17
-151.94
-160.09
-159.76
-148.35
-127.33
-101.81
-77.95
-60.17
-49.51
-43.62
-39.12
-34.16
-29.55
-27.97
-32.26
-43.75
-62.47
-87.25
-115.76
-145.86
-177.00
-210.43
-247.79
-289.98
-335.52
-381.74
-424.31
-455.89
-467.88
-454.10
-412.95
-346.86
-261.60
-163.68
-61.47
37.27
129.43
215.91
297.54
374.22
446.98
517.92
589.83
660.26
721.08
763.28
779.21
761.21
705.49
616.51
497.48
371.52
267.35
190.30
129.10
72.99
21.08
-27.84
-71.96
-107.66
-131.00
-143.26
-149.14
-151.11
-149.02
-147.55
-152.46
-166.25
-188.30
-216.38
-251.74
-297.43
-353.82
-386.38
-373.84
-319.36
-244.70
-171.08
-107.96
-57.89
-20.24
8.03
30.93
46.95
54.22
53.97
50.20
47.72
47.96
50.47
55.04
61.89
67.88
70.60
70.57
67.62
66.82
69.95
76.79
86.67
98.67
109.99
118.64
124.57
129.12
133.97
138.85
142.80
145.05
144.86
141.41
134.84
126.36
117.42
108.92
99.53
86.27
69.70
48.79
23.02
-6.43
-36.32
-62.02
-78.81
-84.22
-78.59
-64.83
-48.05
-32.89
-22.24
-16.74
-15.24
-15.63
-15.92
-14.77
-11.80
-8.52
-7.39
-11.19
-21.64
-38.12
-57.29
-74.14
-84.02
-84.45
-76.26
-62.51
-46.77
-31.67
-18.28
-6.78
2.63
9.06
11.34
8.51
0.77
-10.57
-23.70
-36.96
-49.56
-61.58
-73.56
-85.92
-98.64
-111.05
-122.17
-131.08
-137.38
-141.27
-143.47
-144.89
-146.33
-148.28
-150.95
-154.48
-159.11
-165.35
-174.14
-186.79
-204.54
-227.86
-255.66
-284.89
-310.98
-329.16
-336.08
-331.05
-316.20
-295.45
-272.88
-251.22
-231.51
-213.46
-196.40
-180.03
-164.56
-150.31
-137.21
-124.72
-111.98
-98.40
-83.91
-69.02
-54.62
-41.50
-29.99
-19.94
-10.74
-1.76
7.43
16.83
26.03
34.43
41.48
46.95
50.88
53.55
55.28
56.19
56.17
54.82
51.70
46.45
38.92
29.26
17.88
5.31
-7.89
-21.13
-33.91
-45.75
-56.24
-64.92
-71.41
-75.38
-76.61
-74.99
-70.51
-63.31
-53.53
-41.40
-27.20
-11.22
6.16
24.51
43.35
62.19
80.56
98.08
114.42
129.38
142.79
154.57
164.63
172.94
179.43
184.09
186.92
187.94
187.15
184.50
179.87
173.15
164.28
153.32
140.49
126.28
111.24
96.01
81.15
66.98
53.66
41.20
29.58
18.94
9.58
1.91
-3.66
-7.00
-8.36
-8.34
-7.69
-6.97
-6.27
-5.07
-2.42
2.60
10.48
20.86
32.65
44.44
55.17
64.70
74.00
84.79
98.74
116.65
137.92
160.85
183.25
203.55
221.47
238.11
255.46
275.61
300.22
330.10
365.06
403.43
441.57
473.77
493.16
493.68
472.33
430.64
374.29
310.91
246.94
185.34
125.46
64.93
2.81
-58.37
-112.69
-153.01
-174.17
-175.15
-159.27
-132.46
-100.75
-68.26
-36.81
-6.91
20.52
43.49
59.27
66.19
65.16
60.07
56.44
58.82
68.63
83.52
98.58
108.88
111.73
107.63
99.47
90.76
83.88
79.26
75.79
71.91
66.68
60.14
53.04
46.27
40.21
34.59
28.64
21.58
12.92
2.79
-7.83
-17.05
-22.52
-21.75
-12.94
4.31
28.34
55.40
80.63
99.63
110.18
112.72
109.41
102.07
90.53
72.40
44.55
5.38
-43.67
-98.26
-152.62
-201.43
-240.84
-268.38
-282.35
-281.52
-265.72
-236.86
-199.33
-159.14
-122.14
-92.46
-71.75
-59.62
-54.53
-54.52
-57.55
-61.58
-64.94
-66.99
-68.67
-72.19
-79.93
-92.72
-108.88
-124.30
-134.05
-134.32
-123.37
-102.43
-75.00
-45.70
-19.29
0.04
9.01
6.17
-7.65
-28.74
-51.85
-72.22
-87.55
-98.81
-109.50
-123.79
-144.23
-170.69
-199.15
-224.16
-240.43
-243.93
-232.38
-205.28
-164.36
-112.67
-54.36
9.68
79.07
153.48
232.00
312.79
393.04
468.04
534.04
587.89
634.51
678.92
723.58
766.94
805.43
836.68
859.63
878.70
898.41
930.79
980.49
1042.26
1102.90
1148.72
1172.28
1171.31
1152.99
1124.34
1101.98
1094.47
1100.39
1110.22
1113.83
1106.63
1086.73
1060.73
949.35
712.66
358.64
-56.27
-461.41
-805.99
-1047.87
-1210.30
-1317.49
-1388.67
-1425.24
-1429.15
-1404.12
-1359.47
-1306.45
-1253.32
-1207.29
-1166.40
-1128.30
-1081.55
-1018.88
-939.65
-850.51
-761.15
-679.67
-613.32
-561.63
-522.64
-487.76
-450.41
-408.06
-363.08
-320.17
-283.16
-255.39
-235.35
-220.91
-207.19
-190.88
-171.01
-149.14
-127.79
-108.86
-93.81
-81.83
-71.94
-62.37
-52.03
-40.68
-28.94
-17.82
-8.12
-0.57
5.04
9.17
12.40
15.27
18.07
20.66
22.62
23.54
23.39
22.62
21.98
22.19
23.44
25.48
27.70
29.61
31.02
32.02
32.71
32.93
32.29
30.27
26.61
21.46
15.36
9.01
3.00
-2.39
-7.17
-11.44
-15.20
-18.31
-20.46
-21.41
-21.09
-19.66
-17.39
-14.58
-11.40
-7.95
-4.37
-0.90
2.08
4.22
5.37
5.70
5.62
5.63
6.06
7.04
8.47
10.10
11.63
12.65
12.72
11.42
8.48
3.98
-1.56
-7.30
-12.39
-16.30
-18.97
-20.74
-22.08
-23.21
-24.10
-24.52
-24.36
-23.73
-22.93
-22.13
-21.17
-19.56
-16.77
-12.59
-7.39
-1.95
2.80
6.31
8.53
9.85
10.72
11.42
11.88
11.89
11.32
10.30
9.19
8.43
8.30
8.72
9.40
9.91
9.94
9.38
8.26
6.74
4.95
2.96
0.91
-1.05
-2.69
-3.86
-4.53
-4.83
-5.03
-5.42
-6.15
-7.21
-8.39
-9.36
-9.72
-9.26
-7.89
-5.85
-3.55
-1.49
-0.04
0.70
0.90
0.94
1.12
1.63
2.40
3.27
4.06
4.72
5.24
5.68
6.08
6.44
6.80
7.22
7.70
8.21
8.61
8.76
8.54
8.06
7.45
6.91
6.48
6.03
5.32
4.17
2.52
0.45
-1.89
-4.38
-6.94
-9.44
-11.67
-13.26
-13.81
-13.05
-11.00
-7.98
-4.49
-1.09
1.89
4.34
6.35
8.09
9.65
10.99
11.94
12.37
12.25
11.75
11.19
10.96
11.25
12.04
13.04
13.85
14.11
13.68
12.57
10.94
8.89
6.48
3.70
0.62
-2.56
-5.54
-8.05
-10.02
-11.58
-13.05
-14.73
-16.68
-18.66
-20.18
-20.68
-19.78
-17.49
-14.17
-10.43
-6.84
-3.72
-1.04
1.46
4.07
6.83
9.50
11.66
12.95
13.28
12.88
12.20
11.61
11.32
11.23
11.14
10.87
10.42
9.93
9.53
9.31
9.14
8.84
8.24
7.28
6.05
4.72
3.42
2.12
0.60
-1.45
-4.30
-7.95
-12.09
-16.02
-18.94
-20.15
-19.33
-16.67
-12.78
-8.46
-4.39
-0.99
1.68
3.73
5.35
6.64
7.70
8.71
9.93
11.65
14.01
16.80
19.50
21.47
22.22
21.67
20.16
18.27
16.50
15.03
13.70
12.24
10.47
8.46
6.48
4.84
3.70
2.99
2.40
1.61
0.37
-1.37
-3.48
-5.70
-7.73
-9.30
-10.16
-10.18
-9.33
-7.68
-5.44
-2.85
-0.13
2.58
5.17
7.54
9.54
11.02
11.84
12.08
11.95
11.86
12.17
13.00
14.22
15.42
16.21
16.41
16.11
15.58
15.09
14.67
14.08
13.02
11.24
8.82
6.11
3.56
1.50
-0.02
-1.21
-2.39
-3.74
-5.33
-7.04
-8.75
-10.36
-11.78
-12.90
-13.49
-13.27
-12.01
-9.67
-6.45
-2.73
1.02
4.47
7.43
9.86
11.80
13.30
14.38
15.09
15.50
15.68
15.74
15.79
15.87
15.98
16.08
16.05
15.82
15.33
14.58
13.67
12.71
11.77
10.86
9.90
8.76
7.38
5.78
4.09
2.44
0.90
-0.58
-2.16
-4.10
-6.50
-9.32
-12.26
-14.87
-16.67
-17.35
-16.75
-15.03
-12.51
-9.58
-6.59
-3.76
-1.11
1.41
3.89
6.32
8.60
10.58
12.14
13.26
14.05
14.63
15.11
15.45
15.61
15.54
15.27
14.90
14.55
14.26
13.98
13.60
12.99
12.09
10.93
9.63
8.36
7.25
6.33
5.56
4.82
3.95
2.92
1.69
0.29
-1.24
-2.93
-4.78
-6.69
-8.38
-9.45
-9.52
-8.40
-6.27
-3.57
-0.85
1.47
3.26
4.69
6.12
7.85
9.96
12.25
14.35
15.91
16.73
16.91
16.70
16.41
16.26
16.30
16.46
16.61
16.65
16.61
16.56
16.49
16.35
15.98
15.21
13.99
12.38
10.60
8.97
7.69
6.83
6.20
5.48
4.39
2.77
0.70
-1.57
-3.70
-5.49
-6.83
-7.69
-8.05
-7.80
-6.81
-5.01
-2.51
0.41
3.31
5.81
7.71
9.02
9.96
10.80
11.71
12.73
13.73
14.50
14.89
14.84
14.44
13.85
13.23
12.71
12.34
12.12
11.92
11.60
10.98
9.94
8.46
6.65
4.72
2.86
1.23
-0.16
-1.36
-2.48
-3.59
-4.79
-6.18
-7.89
-10.04
-12.69
-15.71
-18.73
-21.23
-22.68
-22.73
-21.41
-19.14
-16.54
-14.25
-12.56
-11.43
-10.55
-9.56
-8.31
-6.93
-5.68
-4.76
-4.19
-3.77
-3.28
-2.60
-1.82
-1.17
-0.87
-0.96
-1.29
-1.60
-1.71
-1.60
-1.43
-1.44
-1.74
-2.33
-3.00
-3.55
-3.87
-4.00
-4.13
-4.46
-5.07
-5.91
-6.82
-7.68
-8.46
-9.26
-10.19
-11.33
-12.60
-13.76
-14.50
-14.52
-13.68
-12.02
-9.78
-7.27
-4.85
-2.71
-0.97
0.44
1.60
2.61
3.49
4.19
4.66
4.91
5.03
5.15
5.44
5.94
6.59
7.19
7.55
7.59
7.38
7.11
6.91
6.75
6.42
5.63
4.20
2.21
0.01
-1.93
-3.26
-3.88
-3.97
-3.88
-3.93
-4.32
-5.05
-6.02
-7.15
-8.43
-9.89
-11.51
-13.09
-14.26
-14.59
-13.79
-11.86
-9.14
-6.19
-3.58
-1.59
-0.20
0.88
2.00
3.35
4.83
6.21
7.19
7.65
7.68
7.51
7.41
7.51
7.81
8.17
8.46
8.61
8.61
8.50
8.28
7.94
7.40
6.59
5.45
4.04
2.44
0.83
-0.64
-1.86
-2.85
-3.73
-4.64
-5.65
-6.78
-7.94
-9.03
-10.03
-10.98
-11.93
-12.85
-13.61
-13.89
-13.40
-11.97
-9.67
-6.81
-3.84
-1.19
0.90
2.46
3.73
4.97
6.31
7.70
8.94
9.81
10.30
10.56
10.87
11.50
12.51
13.78
14.96
15.62
15.42
14.24
12.23
9.77
7.31
5.19
3.55
2.29
1.18
0.05
-1.15
-2.34
-3.37
-4.14
-4.68
-5.06
-5.38
-5.77
-6.29
-7.02
-8.01
-9.25
-10.61
-11.83
-12.54
-12.40
-11.16
-8.82
-5.60
-1.96
1.62
4.69
6.99
8.46
9.26
9.60
9.68
9.67
9.62
9.58
9.56
9.60
9.71
9.90
10.12
10.33
10.42
10.33
10.00
9.38
8.50
7.41
6.20
4.95
3.69
2.40
1.05
-0.34
-1.68
-2.89
-3.89
-4.68
-5.35
-6.01
-6.76
-7.61
-8.56
-9.58
-10.63
-11.63
-12.43
-12.79
-12.45
-11.24
-9.23
-6.69
-4.09
-1.86
-0.24
0.78
1.46
2.13
3.04
4.23
5.50
6.49
6.83
6.25
4.70
2.41
-0.17
-2.56
-4.33
-5.23
-5.25
-4.52
-3.21
-1.51
0.44
2.47
4.36
5.86
6.71
6.76
6.05
4.80
3.34
2.02
1.08
0.59
0.42
0.33
0.05
-0.61
-1.67
-2.97
-4.19
-4.97
-5.04
-4.29
-2.83
-0.92
1.12
3.02
4.61
5.77
6.47
6.71
6.54
6.08
5.48
4.93
4.57
4.45
4.60
4.93
5.36
5.79
6.15
6.47
6.79
7.20
7.71
8.26
8.75
9.08
9.26
9.34
9.39
9.37
9.15
8.55
7.48
6.07
4.65
3.56
3.00
2.93
3.05
2.98
2.45
1.35
-0.25
-2.16
-4.13
-5.92
-7.33
-8.19
-8.41
-8.02
-7.13
-5.89
-4.49
-3.00
-1.51
-0.05
1.29
2.45
3.38
4.09
4.64
5.05
5.28
5.20
4.63
3.48
1.87
0.06
-1.62
-2.94
-3.90
-4.65
-5.37
-6.12
-6.76
-7.06
-6.88
-6.27
-5.52
-5.04
-5.15
-5.99
-7.49
-9.47
-11.66
-13.84
-15.76
-17.16
-17.81
-17.55
-16.40
-14.57
-12.41
-10.28
-8.41
-6.82
-5.26
-3.42
-1.05
1.90
5.20
8.45
11.22
13.18
14.18
14.27
13.61
12.37
10.70
8.77
6.74
4.85
3.40
2.63
2.65
3.41
4.63
5.94
6.93
7.28
6.83
5.51
3.40
0.65
-2.53
-5.88
-9.10
-11.86
-13.87
-14.88
-14.70
-13.30
-10.75
-7.32
-3.49
0.17
3.04
4.71
5.01
4.16
2.60
0.89
-0.56
-1.56
-2.21
-2.68
-3.14
-3.60
-3.91
-3.93
-3.53
-2.74
-1.68
-0.43
0.97
2.54
4.30
6.14
7.81
8.93
9.22
8.54
7.07
5.20
3.49
2.36
2.01
2.30
2.77
2.90
2.22
0.56
-1.92
-4.79
-7.49
-9.51
-10.57
-10.58
-9.76
-8.53
-7.51
-7.39
-8.73
-11.76
-16.17
-21.10
-25.36
-27.89
-28.16
-26.45
-23.65
-20.90
-19.10
-18.60
-19.28
-20.73
-22.72
-25.25
-28.50
-32.50
-36.97
-41.25
-44.58
-46.47
-46.89
-46.23
-45.05
-43.79
-42.58
-41.28
-39.61
-37.34
-34.39
-30.83
-26.78
-22.40
-17.81
-13.17
-8.67
-4.49
-0.83
2.16
4.43
5.99
6.98
7.53
7.71
7.45
6.60
5.08
2.94
0.45
-2.06
-4.37
-6.56
-8.91
-11.71
-15.06
-18.72
-22.30
-25.39
-27.76
-29.37
-30.26
-30.38
-29.62
-27.96
-25.70
-23.43
-22.00
-22.17
-24.34
-28.40
-33.74
-39.45
-44.59
-48.31
-50.11
-49.88
-48.09
-45.78
-44.37
-45.08
-48.28
-52.83
-56.11
-54.70
-45.58
-27.49
-1.74
27.95
56.49
78.95
92.04
94.92
89.22
78.21
65.67
54.66
46.83
42.17
39.44
36.96
33.45
28.53
22.74
17.07
12.42
9.28
7.63
7.14
7.52
8.58
10.38
13.28
17.99
25.65
37.72
55.37
78.78
106.35
134.64
159.15
175.80
182.35
179.30
169.58
157.43
146.81
140.13
137.67
137.82
137.89
135.18
127.72
114.78
96.75
74.90
50.92
26.58
3.53
-16.80
-33.35
-45.55
-53.46
-57.80
-59.77
-60.64
-61.33
-62.20
-63.12
-63.74
-63.79
-63.27
-62.44
-61.59
-60.94
-60.53
-60.22
-59.74
-58.82
-57.23
-54.80
-51.49
-47.38
-42.69
-37.71
-32.81
-28.20
-23.90
-19.75
-15.45
-10.82
-5.83
-0.70
4.23
8.61
12.12
14.55
15.81
15.91
15.07
13.63
12.07
10.78
9.94
9.48
9.12
8.61
7.85
6.99
6.31
6.02
6.11
6.34
6.38
5.98
5.13
4.03
2.96
2.07
1.29
0.34
-1.07
-3.03
-5.41
-7.96
-10.45
-12.87
-15.31
-17.83
-20.29
-22.32
-23.44
-23.36
-22.12
-20.06
-17.66
-15.25
-12.90
-10.50
-7.92
-5.16
-2.37
0.23
2.51
4.47
6.25
7.97
9.63
11.12
12.26
12.96
13.25
13.27
13.13
12.88
12.50
11.91
11.09
10.04
8.74
7.18
5.28
2.96
0.29
-2.58
-5.37
-7.84
-9.88
-11.55
-13.07
-14.69
-16.56
-18.69
-20.85
-22.66
-23.68
-23.55
-22.12
-19.53
-16.17
-12.49
-8.85
-5.44
-2.25
0.75
3.52
5.87
7.54
8.42
8.58
8.41
8.37
8.85
9.95
11.45
12.94
14.02
14.50
14.41
13.97
13.39
12.71
11.82
10.55
8.81
6.70
4.49
2.47
0.80
-0.59
-1.95
-3.53
-5.49
-7.74
-10.11
-12.44
-14.77
-17.22
-19.85
-22.49
-24.66
-25.81
-25.50
-23.77
-21.07
-18.11
-15.45
-13.29
-11.41
-9.38
-6.91
-4.10
-1.43
0.49
1.16
0.49
-1.19
-3.25
-5.06
-6.24
-6.73
-6.75
-6.56
-6.33
-6.07
-5.63
-4.93
-4.02
-3.12
-2.52
-2.38
-2.65
-3.12
-3.53
-3.75
-3.89
-4.26
-5.18
-6.85
-9.21
-11.96
-14.67
-16.88
-18.30
-18.84
-18.64
-17.94
-16.97
-15.77
-14.22
-12.11
-9.31
-5.87
-2.09
1.62
4.90
7.55
9.55
11.04
12.13
12.90
13.44
13.82
14.23
14.86
15.83
17.09
18.39
19.37
19.69
19.18
17.90
16.07
13.97
11.77
9.51
7.16
4.71
2.24
-0.11
-2.22
-4.09
-5.83
-7.66
-9.70
-11.96
-14.28
-16.42
-18.10
-19.09
-19.24
-18.49
-16.89
-14.62
-11.95
-9.17
-6.51
-4.04
-1.68
0.66
3.05
5.39
7.54
9.33
10.72
11.81
12.73
13.60
14.39
14.97
15.14
14.78
13.89
12.61
11.15
9.73
8.50
7.47
6.59
5.70
4.66
3.40
1.93
0.37
-1.19
-2.66
-4.06
-5.47
-6.96
-8.61
-10.46
-12.50
-14.71
-17.03
-19.28
-21.15
-22.31
-22.45
-21.48
-19.51
-16.87
-13.92
-10.98
-8.18
-5.52
-2.93
-0.37
2.14
4.50
6.60
8.39
9.90
11.18
12.33
13.37
14.32
15.13
15.75
16.11
16.15
15.76
14.93
13.70
12.17
10.52
8.89
7.34
5.87
4.42
2.99
1.61
0.37
-0.69
-1.61
-2.51
-3.52
-4.72
-6.09
-7.56
-9.08
-10.69
-12.47
-14.42
-16.39
-18.05
-18.98
-18.89
-17.70
-15.62
-13.05
-10.37
-7.85
-5.50
-3.23
-0.90
1.54
4.00
6.36
8.42
10.09
11.36
12.36
13.28
14.28
15.43
16.61
17.60
18.13
18.08
17.51
16.66
15.76
14.99
14.28
13.47
12.38
10.97
9.36
7.77
6.42
5.40
4.66
4.04
3.37
2.50
1.36
-0.06
-1.71
-3.54
-5.47
-7.39
-9.16
-10.60
-11.51
-11.70
-11.09
-9.75
-7.89
-5.81
-3.77
-1.92
-0.28
1.19
2.50
3.57
4.29
4.57
4.48
4.20
4.00
4.06
4.40
4.87
5.22
5.26
4.99
4.57
4.27
4.29
4.61
5.00
5.08
4.52
3.23
1.44
-0.44
-1.97
-2.88
-3.18
-3.17
-3.22
-3.68
-4.74
-6.41
-8.53
-10.87
-13.14
-15.03
-16.27
-16.65
-16.08
-14.66
-12.61
-10.24
-7.85
-5.63
-3.70
-2.06
-0.67
0.50
1.46
2.24
2.86
3.39
3.94
4.62
5.52
6.66
8.00
9.40
10.68
11.64
12.11
11.99
11.26
10.06
8.56
6.99
5.46
4.01
2.61
1.18
-0.28
-1.75
-3.13
-4.42
-5.71
-7.14
-8.81
-10.75
-12.79
-14.67
-16.10
-16.84
-16.79
-15.93
-14.38
-12.26
-9.79
-7.17
-4.63
-2.35
-0.42
1.20
2.61
3.93
5.25
6.55
7.74
8.70
9.37
9.78
10.00
10.10
10.10
9.97
9.69
9.27
8.77
8.27
7.78
7.25
6.57
5.65
4.48
3.17
1.88
0.74
-0.20
-0.99
-1.75
-2.58
-3.56
-4.71
-6.07
-7.65
-9.41
-11.29
-13.06
-14.43
-15.06
-14.69
-13.29
-11.05
-8.33
-5.56
-3.05
-0.87
1.06
2.96
4.98
7.12
9.27
11.24
12.89
14.20
15.22
16.06
16.79
17.44
18.07
18.78
19.73
20.99
22.47
23.83
24.59
24.38
23.11
21.11
18.98
17.39
16.82
17.39
18.86
20.77
22.59
23.86
24.35
24.05
23.19
22.11
21.10
20.35
19.88
19.63
19.60
19.85
20.56
21.83
23.63
25.75
27.82
29.47
30.39
30.36
29.23
26.96
23.69
19.73
15.61
11.86
8.83
6.44
4.23
1.49
-2.33
-7.38
-13.23
-19.00
-23.80
-27.06
-28.89
-29.95
-31.10
-32.87
-35.10
-36.94
-37.35
-35.62
-31.87
-27.03
-22.46
-19.31
-18.08
-18.41
-19.42
-20.26
-20.63
-20.95
-22.23
-25.72
-32.38
-42.42
-55.19
-69.17
-82.35
-92.75
-98.98
-100.39
-97.31
-90.85
-82.56
-74.10
-66.60
-60.30
-54.55
-47.99
-39.11
-26.93
-11.54
6.08
24.35
42.14
59.38
76.62
94.73
114.08
133.76
151.38
163.96
168.23
162.21
146.15
121.72
92.07
61.13
32.55
8.79
-8.53
-20.02
-27.16
-31.37
-35.24
-41.32
-51.60
-67.24
-88.32
-112.66
-138.36
-163.06
-184.20
-201.75
-216.96
-231.19
-245.23
-259.25
-271.81
-283.55
-295.67
-296.96
-279.43
-240.51
-184.50
-120.86
-69.20
-34.12
-17.11
-18.53
-37.08
-67.60
-103.58
-136.15
-156.15
-157.25
-136.89
-99.74
-53.94
-7.03
35.17
70.15
98.49
121.82
141.16
157.67
170.93
181.20
190.34
200.28
212.47
227.66
245.76
265.64
286.24
305.25
320.10
328.69
329.25
320.88
304.07
280.49
252.52
222.87
193.30
164.80
137.95
113.14
90.82
71.68
56.22
44.30
35.06
26.84
17.95
7.40
-4.70
-17.48
-29.87
-41.27
-51.72
-61.55
-70.74
-78.43
-83.09
-83.07
-77.53
-66.92
-53.04
-38.42
-25.53
-16.09
-10.82
-9.49
-11.35
-15.51
-21.26
-28.10
-35.73
-43.94
-52.58
-61.61
-71.20
-81.65
-93.35
-106.50
-120.98
-136.25
-151.49
-165.75
-178.11
-187.81
-194.15
-196.51
-194.38
-187.44
-175.71
-159.61
-140.04
-118.35
-96.29
-75.89
-59.11
-47.36
-40.93
-38.68
-38.19
-36.35
-30.37
-18.58
-0.81
21.74
47.08
73.10
97.87
119.88
137.91
151.01
158.63
160.82
158.26
152.17
143.90
134.55
124.80
114.95
105.17
95.69
86.71
78.33
70.28
61.91
52.39
41.04
27.60
12.40
-3.82
-20.19
-35.93
-50.55
-63.78
-75.51
-85.66
-94.12
-100.77
-105.49
-108.23
-109.09
-108.36
-106.48
-104.02
-101.58
-99.66
-98.62
-98.46
-98.76
-98.62
-96.82
-92.13
-83.81
-71.87
-57.16
-41.00
-24.72
-9.24
5.10
18.27
30.18
40.45
48.47
53.67
55.95
55.73
53.86
51.30
48.84
47.09
46.64
48.13
52.20
59.21
68.94
80.52
92.64
103.93
113.33
120.28
124.63
126.48
125.95
123.14
118.17
111.25
102.71
92.95
82.39
71.33
60.03
48.63
37.15
25.57
13.79
1.79
-10.31
-22.14
-33.14
-42.61
-49.98
-54.92
-57.37
-57.52
-55.59
-51.70
-45.85
-38.06
-28.45
-17.41
-5.56
6.44
18.01
28.76
38.50
47.13
54.56
60.71
65.56
69.17
71.68
73.22
73.82
73.32
71.44
67.86
62.41
55.14
46.39
36.70
26.64
16.67
7.04
-2.18
-10.98
-19.20
-26.48
-32.16
-35.44
-35.61
-32.25
-25.41
-15.58
-3.68
9.10
21.47
32.24
40.51
45.82
48.13
47.77
45.23
41.01
35.54
29.08
21.77
13.74
5.16
-3.69
-12.44
-20.65
-28.05
-34.62
-40.76
-47.20
-54.77
-63.98
-74.66
-85.86
-96.01
-103.38
-106.64
-105.29
-99.80
-91.43
-81.81
-72.45
-64.44
-58.26
-53.91
-51.03
-48.97
-46.94
-44.03
-39.43
-32.64
-23.71
-13.29
-2.48
7.59
16.19
23.27
29.33
35.17
41.37
48.08
55.02
61.60
67.26
71.56
74.25
75.28
74.75
72.98
70.46
67.82
65.72
64.58
64.40
64.65
64.31
62.07
56.77
47.85
35.73
21.95
8.83
-1.20
-6.44
-6.53
-2.66
2.93
7.84
10.38
10.16
8.05
5.70
4.78
6.48
11.29
19.06
29.30
41.25
53.96
66.36
77.46
86.70
94.16
100.39
105.88
110.55
113.61
113.93
110.85
104.85
97.74
92.00
89.48
90.19
91.77
90.21
80.99
60.54
27.38
-17.07
-68.70
-121.33
-168.39
-204.86
-228.47
-241.18
-248.97
-260.26
-282.74
-320.16
-370.33
-425.42
-474.35
-505.44
-511.19
-490.86
-450.15
-398.25
-343.94
-292.85
-247.26
-207.11
-170.03
-134.31
-99.77
-67.34
-37.27
-8.17
22.75
57.65
97.77
145.87
204.21
273.08
349.22
425.91
494.06
544.94
571.77
560.08
505.18
415.95
312.29
214.61
134.37
72.35
24.46
-14.14
-49.20
-82.72
-116.01
-151.14
-190.52
-234.60
-281.38
-317.75
-331.52
-316.93
-276.30
-219.76
-160.34
-110.30
-71.80
-43.13
-20.26
0.39
22.09
47.52
79.40
119.71
168.74
224.67
282.52
335.33
374.16
390.76
381.11
346.85
294.54
233.20
171.05
112.38
57.38
3.16
-52.83
-109.52
-161.17
-199.35
-216.59
-209.85
-182.43
-142.34
-99.39
-61.35
-31.59
-9.18
8.88
25.01
39.47
50.41
55.73
54.60
48.18
38.95
29.46
21.09
13.77
6.45
-1.90
-11.24
-20.28
-26.83
-28.90
-25.69
-18.15
-8.76
-0.75
3.27
2.25
-3.01
-10.36
-17.26
-21.81
-23.26
-21.95
-18.91
-15.04
-10.59
-5.21
1.77
10.76
21.50
33.13
44.38
53.83
60.49
64.19
65.41
64.96
63.47
61.20
58.07
53.83
47.89
40.12
31.21
22.58
15.65
11.10
8.66
7.52
6.60
4.20
-0.47
-6.67
-12.38
-15.45
-14.90
-11.20
-5.43
0.80
4.77
4.93
1.99
-1.25
-1.58
2.39
9.46
16.54
18.55
8.10
-20.49
-68.74
-132.82
-204.91
-275.85
-336.94
-381.00
-390.77
-357.51
-286.88
-198.33
-114.06
-47.62
-1.42
25.37
41.46
53.15
62.18
69.68
78.44
92.99
119.08
156.61
200.04
241.06
270.57
281.00
270.28
242.87
208.54
179.08
164.28
170.02
197.87
243.98
299.43
353.14
394.70
416.78
416.16
393.25
351.65
297.24
236.19
173.60
113.35
58.03
9.10
-33.18
-69.94
-103.19
-135.25
-168.36
-203.96
-241.90
-280.39
-316.48
-347.11
-370.22
-384.89
-391.13
-389.39
-380.22
-364.22
-342.34
-316.12
-287.61
-259.09
-232.55
-209.52
-190.99
-177.30
-167.93
-161.19
-154.35
-144.35
-129.06
-108.61
-85.72
-64.88
-50.49
-44.91
-47.35
-54.16
-60.33
-61.42
-54.98
-40.77
-20.07
5.55
35.11
68.34
105.00
144.03
183.06
218.58
247.13
266.52
276.66
279.55
278.43
276.12
273.88
270.71
263.90
250.16
226.91
193.29
150.67
102.73
54.81
12.86
-18.28
-36.55
-43.49
-43.77
-43.47
-47.78
-59.12
-77.00
-98.86
-121.39
-140.98
-153.80
-156.10
-145.09
-120.67
-86.50
-49.10
-15.18
11.02
28.95
40.43
47.04
48.39
42.52
28.03
5.89
-20.39
-46.72
-70.53
-91.40
-110.14
-126.95
-140.82
-150.52
-155.92
-157.85
-156.54
-150.01
-134.10
-105.06
-63.29
-15.17
28.51
57.27
65.57
54.95
32.42
6.51
-16.24
-32.92
-43.66
-50.32
-55.52
-62.71
-76.57
-102.05
-142.15
-195.38
-254.71
-309.26
-348.31
-365.13
-359.12
-334.60
-297.63
-252.74
-201.63
-144.22
-81.10
-15.43
47.04
99.85
138.47
162.11
173.59
177.92
180.23
184.31
191.99
203.07
216.20
229.74
242.67
254.63
265.42
274.43
280.67
283.71
284.59
285.81
289.93
297.48
305.88
310.12
305.65
291.23
270.08
248.44
232.32
224.56
223.89
226.30
227.58
225.27
219.11
210.29
200.64
192.08
186.48
185.51
189.86
198.56
208.65
215.62
214.42
200.78
172.23
128.94
74.19
14.20
-42.93
-89.25
-119.40
-132.31
-131.31
-122.59
-112.58
-105.65
-103.11
-103.76
-105.26
-105.50
-103.24
-98.02
-89.83
-78.75
-65.14
-49.75
-33.84
-18.87
-6.19
3.51
10.42
15.59
20.54
26.67
34.47
43.37
51.78
57.75
59.75
57.35
51.37
43.48
35.40
27.92
20.40
10.89
-3.07
-23.36
-50.29
-82.46
-117.20
-151.92
-185.22
-217.64
-251.66
-290.48
-336.70
-390.78
-450.10
-509.11
-560.67
-598.52
-619.55
-624.20
-615.33
-596.12
-568.63
-533.84
-492.66
-446.73
-397.98
-347.59
-295.69
-242.43
-190.15
-144.12
-110.97
-94.74
-92.97
-96.00
-90.43
-65.81
-20.56
36.03
87.51
117.33
116.29
86.61
40.47
-5.73
-39.19
-56.08
-61.65
-65.61
-75.74
-93.45
-114.07
-131.11
-141.38
-146.91
-152.80
-162.60
-174.92
-183.67
-181.92
-166.25
-139.16
-107.70
-79.88
-61.23
-53.12
-53.37
-57.92
-62.82
-65.55
-65.48
-63.54
-61.64
-61.50
-63.88
-68.31
-73.25
-76.87
-77.75
-75.33
-69.89
-62.23
-53.18
-43.25
-32.49
-20.63
-7.34
7.55
23.96
41.59
60.12
79.16
98.42
117.55
136.33
154.74
173.27
192.94
214.87
239.33
264.88
288.27
305.48
313.40
311.18
300.26
283.36
262.75
239.45
213.51
185.19
155.70
126.96
100.46
76.22
52.91
29.26
5.68
-15.18
-29.61
-35.07
-31.84
-22.95
-12.57
-3.73
2.88
8.72
15.93
25.83
38.20
51.72
65.04
77.57
89.69
102.31
116.27
131.97
149.46
168.75
189.90
212.78
236.66
259.86
279.79
293.45
298.39
293.45
279.16
257.47
230.95
202.21
173.42
146.37
122.58
103.29
89.19
80.00
74.10
68.91
61.71
50.78
36.04
19.02
2.08
-12.85
-24.80
-34.04
-41.34
-47.40
-52.40
-56.32
-59.33
-62.19
-65.96
-71.27
-77.77
-84.11
-88.76
-91.16
-92.19
-93.72
-97.52
-103.93
-111.60
-118.00
-120.83
-119.31
-114.52
-108.73
-104.19
-102.14
-102.35
-103.56
-104.01
-102.04
-96.54
-87.25
-74.65
-59.78
-43.78
-27.33
-10.21
8.61
30.45
56.02
84.74
114.71
143.16
167.46
185.96
198.44
205.75
209.29
210.32
209.66
207.70
204.55
200.23
194.67
187.62
178.69
167.44
153.61
137.47
119.99
102.70
87.41
75.56
67.75
63.37
60.74
57.66
52.23
43.49
31.69
18.11
4.46
-7.83
-17.91
-25.57
-30.86
-33.89
-34.73
-33.64
-31.26
-28.72
-27.44
-28.49
-32.20
-37.74
-43.41
-47.23
-47.60
-43.94
-36.74
-27.37
-17.59
-9.18
-3.75
-2.49
-5.95
-13.60
-23.78
-34.05
-42.13
-46.81
-48.34
-47.90
-46.48
-43.89
-38.78
-29.79
-17.10
-3.31
7.22
10.34
4.34
-9.06
-25.54
-40.32
-50.27
-54.97
-56.00
-55.40
-54.34
-52.69
-49.66
-44.66
-37.81
-29.81
-21.45
-13.29
-5.70
0.91
5.95
8.94
9.89
9.49
8.82
8.89
10.12
12.32
15.16
18.61
23.13
29.23
36.84
44.87
51.55
55.07
54.68
51.15
46.58
43.64
44.40
49.52
57.94
67.19
74.18
76.40
72.98
65.18
56.18
49.98
49.85
57.07
70.33
86.34
101.13
111.60
116.41
116.13
112.48
107.39
102.21
97.62
93.83
91.02
89.55
89.91
92.47
97.06
102.98
109.10
114.27
117.78
119.60
120.28
120.70
121.79
124.35
129.22
137.40
150.01
167.90
190.88
217.17
243.21
264.68
277.83
280.98
275.11
263.23
248.93
234.78
221.62
208.71
194.89
179.62
163.42
147.52
133.10
120.48
108.88
96.70
82.28
64.59
43.69
20.73
-2.47
-24.13
-43.28
-60.27
-76.72
-94.91
-116.77
-142.85
-171.99
-201.58
-228.74
-251.71
-270.68
-287.76
-306.11
-328.56
-356.63
-390.60
-429.72
-472.58
-516.36
-556.31
-586.25
-600.84
-598.89
-585.36
-570.36
-564.90
-575.31
-599.63
-628.27
-648.73
-651.51
-634.15
-600.90
-559.22
-515.37
-472.11
-429.21
-385.85
-342.67
-302.01
-266.56
-237.45
-213.28
-190.43
-164.94
-134.38
-98.89
-61.15
-24.61
7.97
35.92
60.75
85.14
111.55
141.38
174.65
210.38
246.76
281.38
311.21
333.13
344.98
346.87
341.60
333.54
326.50
321.73
317.52
310.90
300.15
286.31
272.38
260.46
249.10
232.93
205.14
161.62
104.27
41.12
-16.57
-58.42
-78.44
-75.90
-54.30
-19.29
22.75
65.46
102.53
128.05
137.51
129.39
106.05
73.37
38.92
9.39
-11.55
-24.08
-31.19
-36.75
-43.57
-52.27
-61.52
-68.77
-71.17
-66.05
-51.34
-25.99
9.05
50.01
90.61
123.60
143.45
148.72
143.02
133.67
128.73
133.43
148.03
168.07
187.05
199.64
204.12
202.49
198.51
195.06
192.44
188.76
181.87
171.55
160.41
152.70
151.90
158.64
170.07
181.21
187.15
184.86
173.89
155.65
131.80
103.06
69.00
28.94
-16.65
-65.19
-112.00
-151.47
-178.87
-191.90
-191.44
-181.20
-166.36
-151.97
-141.56
-136.58
-136.44
-139.29
-142.79
-144.89
-144.33
-140.72
-134.54
-126.88
-119.14
-112.59
-108.16
-106.14
-106.07
-106.97
-107.73
-107.58
-106.36
-104.40
-102.27
-100.22
-97.89
-94.24
-87.94
-78.06
-64.68
-49.19
-33.83
-21.04
-12.45
-8.28
-7.41
-7.70
-6.68
-2.26
6.73
20.14
36.31
52.53
65.76
73.79
76.17
74.47
71.71
70.90
73.62
79.21
85.04
87.74
84.54
74.46
58.52
39.03
18.84
0.58
-13.39
-21.14
-21.35
-13.87
-0.44
15.19
27.96
33.35
29.10
16.36
-0.75
-16.85
-27.33
-29.90
-24.93
-14.69
-2.10
10.22
20.57
28.10
32.75
35.07
36.02
36.74
38.33
41.53
46.44
52.37
58.03
61.76
62.11
58.33
50.75
40.81
30.59
22.23
17.11
15.33
15.65
16.08
14.68
10.38
3.41
-4.80
-12.33
-17.56
-19.82
-19.43
-17.41
-14.79
-12.18
-9.59
-6.71
-3.20
0.87
5.04
8.68
10.98
11.29
9.25
4.92
-0.82
-6.31
-9.27
-7.45
0.32
13.26
28.71
42.92
52.44
55.33
51.71
43.27
32.25
20.42
8.46
-3.75
-16.33
-28.70
-39.26
-45.94
-47.37
-43.81
-37.39
-31.37
-28.83
-31.41
-38.66
-48.35
-57.36
-62.84
-62.94
-57.20
-46.58
-33.26
-20.30
-10.77
-6.83
-8.79
-15.08
-22.84
-29.25
-32.53
-32.45
-29.81
-25.61
-20.54
-14.83
-8.75
-2.90
1.69
3.97
3.39
0.21
-4.79
-10.83
-17.65
-25.60
-35.25
-46.71
-59.34
-72.19
-85.00
-99.18
-117.64
-143.27
-176.62
-214.29
-249.19
-273.00
-279.55
-267.50
-240.73
-206.25
-170.95
-139.13
-111.69
-87.32
-64.24
-41.39
-18.43
4.85
28.98
54.48
81.12
107.29
130.17
146.60
154.33
153.00
144.33
131.71
119.31
110.97
109.26
114.76
125.94
139.55
151.87
159.93
162.51
160.31
155.11
148.58
141.56
134.09
126.09
118.11
111.47
107.53
106.81
108.53
110.84
111.84
110.46
106.81
101.84
96.49
91.13
85.45
78.88
71.25
63.13
55.73
50.38
47.95
48.31
50.25
51.87
51.19
46.92
38.90
28.23
16.72
6.17
-2.30
-8.43
-12.56
-15.06
-15.76
-13.81
-8.09
2.02
15.88
31.24
44.49
51.72
49.82
37.58
15.97
-12.59
-45.50
-81.45
-121.07
-166.40
-218.96
-277.58
-337.16
-389.26
-424.53
-436.06
-421.75
-384.71
-331.84
-271.77
-213.16
-163.98
-130.76
-117.49
-124.00
-144.86
-170.25
-188.96
-192.52
-178.31
-149.98
-114.87
-80.16
-49.86
-24.10
-0.50
23.77
50.61
80.76
114.21
150.07
185.77
216.57
236.27
239.50
224.65
195.68
161.10
130.33
109.50
98.82
93.32
86.28
73.25
54.36
33.85
17.46
9.73
12.64
26.07
48.80
79.18
114.73
151.39
183.50
204.95
211.17
201.06
177.78
148.03
119.92
100.47
93.28
97.56
108.53
119.35
123.65
117.69
101.39
77.70
50.92
24.76
1.40
-18.18
-33.23
-42.45
-44.40
-38.70
-27.24
-14.18
-4.54
-1.79
-6.15
-14.63
-22.84
-27.59
-28.54
-27.95
-28.94
-33.30
-40.45
-48.13
-54.20
-58.28
-62.21
-69.01
-81.08
-98.79
-120.17
-141.89
-160.91
-175.74
-186.85
-195.91
-204.57
-213.29
-221.04
-225.89
-226.05
-220.95
-211.29
-198.31
-182.63
-163.53
-139.35
-108.71
-71.61
-29.77
14.25
58.55
102.84
148.19
195.64
244.63
292.36
334.65
367.67
389.67
401.42
405.45
404.67
401.18
396.12
390.26
384.79
381.60
382.72
389.15
399.72
410.62
416.10
410.09
388.17
348.95
294.38
228.92
157.78
85.42
14.58
-53.83
-120.17
-185.35
-249.97
-313.67
-374.64
-429.50
-473.90
-503.75
-516.74
-513.36
-496.89
-472.19
-444.09
-416.01
-389.56
-364.89
-341.30
-317.45
-291.26
-259.65
-219.03
-166.43
-101.13
-25.73
54.00
130.63
197.39
250.14
288.10
313.21
328.48
336.34
337.77
332.48
319.95
300.38
275.15
246.39
216.19
185.90
156.02
126.66
98.18
71.44
47.62
27.64
11.51
-1.77
-13.76
-25.84
-38.44
-50.93
-61.94
-70.19
-75.03
-76.68
-75.99
-73.90
-71.09
-67.80
-64.01
-59.66
-54.75
-49.31
-43.32
-36.66
-29.18
-20.95
-12.39
-4.46
1.53
4.26
2.86
-2.61
-11.04
-20.54
-29.03
-34.94
-37.74
-37.99
-36.98
-36.27
-37.12
-40.26
-45.74
-53.00
-61.01
-68.51
-74.36
-77.79
-78.52
-76.65
-72.48
-66.20
-57.99
-48.16
-37.54
-27.45
-19.35
-14.06
-11.30
-9.68
-7.30
-2.66
4.73
14.02
23.40
31.06
36.14
39.18
41.80
46.05
53.58
65.20
80.39
97.26
113.02
124.55
128.96
124.01
108.86
84.87
56.02
27.64
4.68
-10.05
-16.88
-18.77
-19.95
-23.70
-31.59
-41.30
-48.04
-47.43
-38.55
-24.07
-7.61
8.47
23.85
39.37
55.94
72.81
88.25
100.42
107.88
111.08
111.55
111.26
111.91
114.62
118.91
123.60
127.28
128.98
128.47
125.88
121.22
113.71
106.27
99.14
92.33
85.22
77.26
68.35
58.70
48.80
39.26
30.86
23.33
16.92
11.36
6.18
0.87
-5.02
-11.64
-18.72
-25.33
-31.36
-35.19
-36.55
-36.09
-35.24
-35.64
-38.42
-43.66
-50.09
-57.91
-63.26
-65.65
-66.31
-67.83
-73.13
-83.98
-100.39
-120.03
-143.61
-163.57
-178.76
-190.49
-201.73
-215.84
-235.28
-262.06
-296.36
-342.72
-389.44
-429.21
-453.03
-452.80
-425.09
-373.86
-312.67
-258.13
-232.24
-231.73
-254.12
-291.76
-336.76
-384.88
-436.30
-495.81
-511.05
-542.22
-566.23
-569.88
-545.91
-495.78
-428.58
-356.45
-293.29
-246.05
-221.59
-203.97
-186.74
-167.56
-148.28
-132.46
-97.73
-35.49
48.61
132.08
206.46
263.46
301.04
320.49
324.48
315.87
296.25
268.22
232.09
197.39
167.74
144.24
126.19
112.71
102.21
91.54
79.49
65.28
53.64
46.61
44.65
46.91
51.99
58.64
64.31
67.33
66.79
64.24
60.45
55.51
49.02
40.55
29.89
16.47
0.21
-18.23
-37.71
-57.21
-76.03
-93.74
-109.82
-123.58
-134.34
-141.42
-144.17
-142.25
-135.80
-125.37
-111.65
-94.83
-74.84
-51.49
-24.94
4.06
34.10
63.34
89.99
112.94
132.49
150.02
167.52
186.75
208.51
232.36
256.97
280.70
302.43
322.72
343.05
365.26
391.00
421.64
458.02
499.78
544.14
585.20
616.15
629.52
619.82
585.97
532.23
466.86
398.66
333.60
273.57
221.08
177.48
144.15
122.27
112.63
115.26
128.86
150.57
176.42
207.63
244.33
284.53
323.45
355.63
377.69
389.32
392.50
390.03
391.69
404.66
431.86
470.71
515.68
561.52
604.79
643.59
632.09
544.79
381.55
169.34
-55.36
-264.85
-445.49
-593.04
-706.94
-787.76
-829.52
-834.10
-806.85
-757.90
-699.40
-641.52
-590.40
-548.42
-515.21
-483.01
-444.84
-396.27
-338.00
-274.96
-213.95
-161.81
-124.20
-104.65
-100.28
-105.97
-115.38
-123.19
-125.48
-119.65
-105.04
-83.74
-60.55
-40.02
-26.45
-21.83
-25.08
-31.65
-34.75
-28.17
-9.40
18.67
49.23
73.62
85.11
81.40
65.36
43.71
24.08
12.14
9.88
15.70
25.71
35.46
41.19
40.59
33.18
20.35
5.12
-8.39
-15.89
-14.00
-1.36
20.51
46.88
70.73
84.96
85.15
71.74
50.50
30.68
21.46
28.30
51.12
84.83
121.74
154.53
178.13
190.39
191.57
183.26
167.62
147.06
123.97
100.37
77.54
55.56
33.78
11.43
-12.03
-36.61
-61.67
-85.95
-107.81
-125.67
-139.21
-148.77
-155.27
-159.90
-163.80
-167.52
-170.75
-172.26
-170.61
-166.55
-161.37
-156.56
-153.45
-152.96
-155.62
-161.25
-168.98
-177.41
-187.60
-199.88
-213.71
-228.41
-244.25
-263.04
-287.22
-318.06
-354.16
-394.05
-432.49
-461.85
-474.94
-468.12
-442.77
-404.20
-359.20
-293.49
-203.96
-97.87
9.51
103.14
174.91
224.17
255.19
273.91
285.55
289.91
285.78
272.36
250.56
223.26
193.95
166.37
143.73
127.86
116.28
106.28
96.30
86.54
78.35
73.00
71.08
72.35
76.10
79.46
80.36
78.16
73.47
67.23
59.97
51.71
42.40
32.29
21.43
10.56
0.87
-6.57
-11.39
-14.04
-15.29
-15.75
-15.52
-14.67
-13.16
-11.09
-8.77
-6.48
-4.23
-1.58
2.16
7.43
13.96
20.58
25.53
26.97
23.64
15.30
2.90
-11.33
-24.17
-31.99
-31.44
-20.28
1.92
33.45
70.82
109.66
145.94
176.98
201.73
220.58
234.87
246.25
256.19
265.46
273.99
280.71
283.95
281.60
271.88
254.05
228.60
197.00
160.70
120.53
76.94
31.09
-14.57
-56.52
-91.19
-116.68
-133.35
-143.47
-149.52
-153.44
-154.11
-149.16
-137.80
-122.46
-107.97
-98.39
-94.76
-94.83
-94.83
-91.97
-86.28
-80.33
-76.80
-77.97
-84.15
-93.94
-104.93
-114.45
-120.13
-120.41
-114.81
-104.00
-89.85
-74.84
-61.49
-51.95
-47.40
-47.57
-50.99
-55.35
-57.95
-56.27
-48.60
-34.83
-17.03
0.96
14.85
21.65
21.05
15.73
10.03
8.02
11.53
19.61
29.33
37.50
42.28
43.70
43.25
42.69
42.97
43.86
44.23
43.06
40.14
36.27
32.71
30.36
29.09
27.93
25.76
22.37
18.90
17.40
19.64
25.84
34.30
42.08
46.58
46.89
44.35
41.69
41.50
44.94
51.19
58.08
63.33
65.52
64.47
60.86
55.85
50.82
47.45
47.44
51.98
60.86
72.11
82.33
87.96
86.66
78.20
64.17
46.94
28.47
9.68
-9.37
-28.76
-47.98
-65.73
-80.09
-89.20
-92.16
-89.65
-84.41
-80.81
-83.49
-95.53
-117.03
-144.87
-173.72
-197.90
-213.01
-216.64
-208.36
-189.11
-160.92
-126.76
-90.45
-56.05
-26.91
-4.86
10.38
20.72
28.84
37.27
47.76
60.75
75.09
87.90
95.25
93.66
81.87
61.80
38.06
16.06
-0.09
-8.88
-11.14
-8.55
-2.32
7.16
19.40
32.52
42.74
45.50
37.59
19.07
-6.29
-32.29
-52.78
-63.78
-64.58
-57.50
-46.27
-34.42
-24.09
-15.72
-8.58
-1.65
5.82
14.11
23.24
33.20
44.01
55.54
67.39
78.86
89.07
97.29
103.11
106.39
107.21
105.69
102.02
96.52
89.60
81.76
73.36
64.52
55.09
44.87
33.74
21.85
9.53
-2.77
-14.62
-25.60
-35.41
-43.80
-50.64
-55.92
-59.68
-62.05
-63.18
-63.24
-62.41
-60.85
-58.67
-55.85
-52.32
-48.01
-42.93
-37.21
-31.04
-24.52
-17.69
-10.53
-3.14
4.11
10.65
15.83
19.21
20.72
20.70
19.77
18.58
17.71
17.44
17.84
18.70
19.65
20.19
19.87
18.41
15.68
11.79
6.94
1.45
-4.31
-9.91
-14.88
-18.81
-21.53
-23.13
-24.03
-24.77
-25.83
-27.43
-29.44
-31.43
-32.84
-33.14
-32.03
-29.45
-25.61
-20.97
-16.10
-11.65
-8.11
-5.65
-3.99
-2.50
-0.49
2.32
5.50
8.03
8.69
6.81
2.58
-2.98
-8.72
-13.99
-19.01
-24.54
-31.15
-38.53
-45.41
-50.09
-51.33
-49.12
-44.66
-39.80
-36.18
-34.60
-34.93
-36.47
-38.34
-39.81
-40.27
-39.20
-36.20
-31.19
-24.68
-17.76
-11.77
-7.65
-5.44
-4.24
-2.69
0.20
4.51
9.29
13.02
14.30
12.47
7.77
1.13
-6.19
-13.08
-18.66
-22.16
-22.88
-20.06
-13.20
-2.29
11.88
27.82
43.69
57.93
69.71
79.16
87.04
94.24
101.26
107.97
113.77
117.94
120.04
120.10
118.60
116.27
113.79
111.52
109.39
106.84
103.15
97.71
90.32
81.31
71.42
61.39
51.77
42.79
34.48
26.87
20.10
14.38
9.85
6.42
3.76
1.46
-0.82
-3.25
-5.82
-8.42
-10.92
-13.22
-15.22
-16.85
-18.05
-18.83
-19.29
-19.70
-20.46
-22.00
-24.70
-28.71
-33.80
-39.36
-44.51
-48.26
-49.79
-48.64
-44.85
-38.96
-31.93
-24.90
-19.01
-15.06
-13.36
-13.68
-15.38
-17.58
-19.53
-20.78
-21.35
-21.61
-22.19
-23.59
-26.04
-29.27
-32.61
-35.24
-36.38
-35.70
-33.39
-30.05
-26.54
-23.64
-21.78
-21.03
-21.06
-21.37
-21.40
-20.73
-19.13
-16.60
-13.33
-9.64
-5.87
-2.35
0.67
3.08
4.95
6.49
8.00
9.71
11.61
13.28
13.97
12.80
9.20
3.26
-4.12
-11.49
-17.48
-21.43
-23.71
-25.58
-28.51
-33.44
-40.33
-48.15
-55.41
-60.81
-63.68
-64.02
-62.19
-58.63
-53.66
-47.64
-41.21
-35.39
-31.45
-30.41
-32.59
-37.36
-43.24
-48.40
-51.10
-50.17
-45.11
-36.04
-23.59
-8.75
7.22
22.83
36.56
47.13
53.89
57.10
57.89
57.97
58.96
61.79
66.43
72.02
77.34
81.30
83.33
83.32
81.48
78.16
73.80
68.92
64.18
60.22
57.42
55.76
54.71
53.45
51.19
47.43
42.11
35.53
28.30
21.07
14.45
8.85
4.36
0.76
-2.35
-5.43
-8.78
-12.50
-16.44
-20.40
-24.13
-27.48
-30.32
-32.57
-34.15
-35.06
-35.37
-35.24
-34.79
-34.09
-33.11
-31.77
-30.06
-28.10
-26.12
-24.26
-22.52
-20.67
-18.40
-15.54
-12.15
-8.64
-5.56
-3.46
-2.64
-3.08
-4.48
-6.36
-8.13
-9.27
-9.33
-8.07
-5.55
-2.18
1.29
3.93
4.83
3.40
-0.58
-6.87
-14.85
-23.69
-32.40
-40.00
-45.61
-48.62
-48.80
-46.38
-42.05
-36.76
-31.54
-27.14
-23.93
-21.79
-20.24
-18.64
-16.38
-13.10
-8.76
-3.62
1.88
7.30
12.29
16.68
20.50
23.91
27.21
30.68
34.48
38.44
41.94
44.01
43.50
39.59
32.19
22.10
10.86
0.25
-8.30
-14.09
-17.16
-18.11
-17.67
-16.42
-14.68
-12.58
-10.18
-7.62
-5.12
-2.91
-1.20
-0.06
0.63
1.06
1.50
2.12
3.04
4.33
6.09
8.49
11.69
15.64
19.95
23.85
26.37
26.59
23.97
18.49
10.66
1.40
-8.18
-16.97
-24.04
-28.78
-30.99
-30.91
-29.09
-26.20
-22.88
-19.62
-16.68
-14.19
-12.18
-10.69
-9.77
-9.40
-9.47
-9.69
-9.68
-8.99
-7.31
-4.52
-0.77
3.59
8.15
12.57
16.67
20.46
24.07
27.69
31.40
35.10
38.42
40.70
41.12
38.96
33.87
26.11
16.58
6.66
-2.17
-8.71
-12.39
-13.40
-12.43
-10.38
-7.94
-5.37
-2.64
0.35
3.37
5.78
6.74
5.58
2.17
-2.93
-8.79
-14.43
-19.19
-22.84
-25.52
-27.43
-28.67
-29.16
-28.77
-27.51
-25.69
-23.86
-22.70
-22.67
-23.77
-25.41
-26.61
-26.35
-24.00
-19.58
-13.77
-7.66
-2.28
1.63
3.80
4.32
3.49
1.69
-0.69
-3.30
-5.78
-7.82
-9.18
-9.75
-9.49
-8.46
-6.75
-4.38
-1.35
2.45
7.10
12.66
19.06
26.04
33.17
39.82
45.36
49.19
50.86
50.09
46.80
41.14
33.51
24.56
15.11
5.98
-2.20
-9.06
-14.55
-18.81
-21.99
-24.27
-25.75
-26.61
-27.13
-27.62
-28.42
-29.75
-31.72
-34.23
-36.93
-39.27
-40.56
-40.31
-38.45
-35.48
-32.35
-30.12
-29.53
-30.76
-33.40
-36.73
-40.04
-42.78
-44.61
-45.40
-45.13
-43.88
-41.83
-39.03
-35.26
-29.96
-22.30
-11.66
2.08
18.30
35.96
53.96
71.57
88.50
104.63
119.71
133.08
143.90
151.40
155.26
155.55
152.54
146.28
136.49
122.79
105.13
84.18
61.38
38.60
17.63
-0.25
-14.45
-24.96
-32.12
-36.38
-38.24
-38.20
-36.75
-34.26
-30.94
-26.77
-21.65
-15.52
-8.51
-1.01
6.42
13.13
18.64
22.75
25.71
28.23
31.37
36.26
43.77
54.28
67.55
82.75
98.55
113.36
125.44
133.23
135.76
133.04
126.19
117.27
108.66
102.36
99.46
99.86
102.39
105.24
106.38
104.16
97.73
87.21
73.62
58.53
43.50
29.86
18.71
11.13
8.36
11.62
21.38
36.62
54.62
71.46
83.25
87.37
83.18
72.02
56.63
40.26
26.03
16.48
13.11
15.96
23.27
31.59
36.60
34.35
22.57
1.30
-27.22
-59.42
-91.44
-119.99
-142.70
-158.19
-166.11
-166.93
-161.79
-152.18
-139.53
-124.88
-108.88
-92.28
-76.48
-63.89
-57.42
-59.41
-70.52
-88.84
-110.18
-129.05
-140.66
-142.95
-137.55
-128.69
-120.89
-116.51
-114.44
-110.61
-100.15
-80.00
-50.84
-17.83
11.91
31.81
37.60
27.78
3.18
-33.46
-77.61
-123.67
-166.97
-203.01
-227.81
-238.50
-233.94
-215.03
-184.24
-144.89
-101.51
-61.29
-30.44
-12.08
-5.25
-6.13
-10.31
-14.52
-17.64
-22.23
-36.12
-66.41
-115.24
-177.58
-242.67
-298.32
-334.96
-348.23
-322.06
-253.93
-155.40
-47.78
49.14
124.59
175.40
199.05
200.50
185.20
157.40
124.00
93.51
73.17
68.80
78.76
96.55
114.82
127.20
128.44
117.54
97.96
76.33
60.12
54.72
62.57
83.21
112.39
142.46
166.11
179.06
181.56
177.69
172.84
171.75
177.05
187.91
200.40
209.80
212.39
206.50
192.29
170.94
144.22
114.30
83.14
52.23
22.76
-4.48
-29.14
-51.18
-70.79
-88.05
-102.69
-114.35
-122.74
-127.86
-130.10
-130.17
-128.91
-126.98
-124.66
-121.86
-118.27
-113.49
-107.24
-99.29
-89.49
-77.89
-64.91
-51.52
-39.28
-29.92
-24.71
-23.65
-25.16
-26.29
-23.75
-15.19
-0.25
19.31
40.28
59.23
73.57
81.94
84.04
80.26
71.34
58.41
43.20
27.91
14.82
5.60
0.69
-0.79
-0.53
-0.22
-0.82
-2.22
-3.31
-2.50
1.62
9.60
20.64
32.53
42.13
46.41
43.55
33.74
19.11
2.93
-11.62
-22.50
-29.18
-32.27
-32.83
-31.77
-29.74
-27.26
-25.02
-23.82
-24.29
-26.51
-29.90
-33.41
-36.05
-37.27
-37.16
-36.20
-34.93
-33.57
-31.95
-29.64
-26.23
-21.72
-16.56
-11.64
-7.84
-5.74
-5.19
-5.31
-4.79
-2.38
2.55
9.80
18.39
26.98
34.39
39.92
43.46
45.29
45.91
45.78
45.18
44.15
42.51
39.92
36.12
31.10
25.26
19.26
13.80
9.36
6.02
3.59
1.79
0.34
-0.93
-2.15
-3.54
-5.33
-7.72
-10.72
-14.18
-17.73
-20.92
-23.27
-24.35
-24.00
-22.38
-19.98
-17.44
-15.29
-13.78
-12.84
-12.23
-11.72
-11.15
-10.35
-9.06
-6.93
-3.66
0.73
5.77
10.62
14.42
16.53
16.88
15.89
14.39
13.28
13.32
14.90
17.96
21.97
26.04
29.13
30.29
28.93
25.00
18.99
11.85
4.68
-1.57
-6.33
-9.37
-10.66
-10.19
-8.06
-4.60
-0.48
3.46
6.57
8.76
10.60
13.17
17.64
25.05
36.31
52.26
73.34
98.97
126.78
152.53
171.03
177.84
170.92
151.44
123.09
90.49
57.42
25.95
-3.35
-30.55
-55.54
-77.70
-96.24
-110.63
-121.01
-128.01
-132.42
-134.73
-134.99
-132.86
-127.94
-120.13
-109.78
-97.56
-84.23
-70.31
-56.04
-41.58
-27.36
-14.23
-3.33
4.32
8.28
8.98
7.47
5.02
2.55
0.50
-1.16
-2.55
-3.62
-4.03
-3.31
-1.07
2.64
7.27
11.99
15.99
19.05
21.68
25.04
30.39
38.43
48.88
60.50
71.63
80.83
87.41
91.50
93.78
95.01
95.71
95.92
95.28
92.96
87.89
79.01
65.75
48.51
28.62
8.02
-11.54
-29.05
-44.26
-57.25
-67.88
-75.47
-79.08
-78.22
-73.41
-66.38
-59.48
-54.66
-52.74
-53.21
-54.59
-55.15
-53.63
-49.53
-43.33
-36.18
-29.37
-24.04
-21.29
-21.72
-25.32
-31.48
-38.69
-45.59
-50.98
-53.98
-54.28
-53.03
-51.84
-52.30
-55.41
-60.52
-67.09
-74.64
-82.73
-91.33
-101.60
-114.38
-129.50
-145.63
-159.29
-168.29
-171.75
-169.85
-163.94
-157.20
-152.55
-151.82
-155.36
-160.27
-164.64
-167.31
-167.96
-157.73
-131.76
-89.91
-37.67
7.06
40.67
65.13
83.74
101.68
120.64
139.20
155.12
167.45
174.11
174.86
168.97
157.54
144.04
132.40
124.09
117.91
110.54
98.11
80.13
58.11
36.26
20.18
14.43
19.93
33.48
48.77
58.59
59.46
51.81
40.56
33.15
36.05
51.91
78.97
112.30
144.02
167.41
177.06
169.95
146.13
109.04
64.96
21.35
-15.65
-43.57
-64.02
-81.73
-101.42
-124.50
-147.55
-163.33
-164.13
-145.87
-110.71
-66.57
-24.22
7.23
24.12
29.25
29.80
33.21
43.34
58.93
75.14
86.74
91.23
89.97
86.82
85.36
86.72
88.99
88.70
83.28
72.71
59.69
48.00
40.12
35.49
30.47
20.11
0.96
-26.71
-58.36
-86.77
-105.09
-109.64
-101.37
-85.00
-66.83
-52.16
-43.66
-41.40
-43.81
-49.00
-55.23
-61.19
-65.57
-67.26
-65.80
-61.89
-57.37
-54.54
-55.02
-59.26
-66.41
-74.95
-83.31
-90.04
-93.68
-92.57
-85.14
-70.73
-50.37
-26.84
-3.94
15.00
28.32
36.34
40.66
42.92
43.86
43.22
40.54
36.13
31.50
28.95
30.48
36.62
45.99
55.75
62.87
65.34
62.94
57.00
49.72
43.12
38.35
35.54
34.06
32.96
31.39
28.85
25.26
20.81
15.76
10.34
4.71
-0.88
-5.95
-9.68
-11.13
-9.56
-4.84
2.33
10.56
18.13
23.60
26.26
26.19
24.12
20.95
17.40
13.78
10.05
6.06
1.70
-2.99
-7.81
-12.49
-16.59
-19.57
-20.88
-20.33
-18.41
-16.46
-16.37
-19.84
-27.58
-38.71
-50.82
-60.69
-65.36
-63.14
-54.13
-40.01
-23.33
-6.61
8.37
20.90
31.04
39.17
45.47
49.64
51.12
49.37
44.25
36.08
25.39
12.63
-1.99
-18.19
-35.23
-51.50
-64.66
-72.11
-72.00
-63.99
-49.65
-32.30
-16.17
-5.30
-2.30
-7.54
-18.82
-31.91
-41.61
-43.26
-33.91
-13.12
17.06
52.73
89.10
121.46
145.73
158.87
158.89
145.10
118.39
81.60
39.80
-0.25
-31.31
-47.56
-46.29
-28.98
-0.93
30.19
56.34
70.96
70.17
53.29
22.73
-16.22
-56.19
-88.90
-106.94
-105.68
-84.56
-47.30
-0.90
46.31
86.64
114.46
126.84
123.51
106.44
79.41
47.46
16.10
-9.70
-26.66
-34.04
-33.83
-30.03
-27.32
-29.51
-38.36
-53.22
-71.54
-90.09
-106.21
-118.70
-127.86
-134.91
-140.86
-145.71
-147.96
-145.06
-134.40
-114.58
-86.34
-52.81
-18.91
10.07
30.11
39.81
40.67
36.36
31.35
29.34
32.46
41.12
54.54
71.10
88.56
103.96
113.88
115.01
105.27
84.84
56.49
25.05
-3.89
-25.52
-36.85
-37.14
-27.67
-11.14
9.01
29.31
46.74
59.14
65.38
65.46
60.34
51.72
41.68
32.16
24.56
19.41
16.34
14.24
11.76
7.76
1.57
-6.99
-17.80
-30.41
-43.98
-56.92
-66.87
-71.00
-66.75
-52.82
-29.78
-0.17
32.07
62.49
87.07
102.94
108.73
104.53
91.71
72.45
49.46
25.66
3.95
-12.96
-22.72
-23.90
-16.53
-2.50
14.63
30.45
41.08
44.38
40.51
31.51
20.04
8.19
-3.20
-14.30
-25.48
-36.57
-46.56
-54.04
-57.88
-57.77
-54.28
-48.51
-41.49
-33.84
-25.62
-16.66
-6.86
3.36
13.03
20.79
25.29
25.99
23.41
19.17
15.53
14.41
16.51
20.95
25.54
27.74
25.70
18.99
8.68
-3.03
-13.63
-21.03
-24.14
-23.02
-18.67
-12.53
-6.06
-0.39
3.71
5.68
5.07
1.56
-4.86
-13.63
-23.51
-32.76
-39.57
-42.52
-41.24
-36.44
-29.86
-23.50
-18.87
-16.28
-14.87
-13.37
-11.17
-8.94
-8.40
-11.10
-16.93
-23.49
-26.76
-22.99
-10.81
7.85
28.43
45.72
55.98
58.39
54.62
47.79
41.08
36.86
36.50
40.71
49.75
62.91
78.25
92.31
100.87
100.54
90.38
73.09
54.36
40.71
36.39
41.15
50.37
57.69
58.66
53.27
45.68
41.38
43.55
50.82
57.89
58.46
48.76
29.42
5.04
-18.27
-35.70
-45.41
-48.39
-47.34
-45.34
-44.70
-46.26
-49.42
-52.33
-52.67
-48.86
-40.60
-29.17
-16.93
-6.28
1.27
5.40
6.72
6.05
3.75
-0.26
-6.04
-12.98
-19.56
-23.59
-23.12
-17.44
-7.67
3.29
11.83
15.26
13.23
8.28
4.92
7.65
18.72
36.92
57.93
76.30
87.82
91.08
87.62
80.55
72.70
65.36
58.20
50.03
39.95
27.98
14.91
1.93
-10.04
-20.45
-28.98
-35.14
-38.17
-37.13
-31.40
-21.06
-7.12
8.69
24.37
38.10
48.46
54.33
54.70
48.75
36.19
17.79
-4.32
-26.87
-46.19
-59.32
-64.92
-63.53
-57.18
-48.47
-39.49
-31.31
-23.86
-16.39
-8.15
1.14
11.05
20.67
29.05
35.79
41.29
46.71
53.51
62.79
74.82
88.86
103.45
116.97
128.31
137.19
143.97
149.35
153.85
157.48
159.79
160.07
157.65
152.28
143.82
132.18
117.44
100.35
82.79
67.69
58.10
55.77
60.61
69.88
79.26
84.55
83.23
75.30
62.68
48.02
33.32
20.42
10.02
2.21
-3.45
-7.81
-11.91
-16.70
-22.86
-30.51
-38.01
-43.45
-44.97
-41.61
-33.64
-22.39
-9.89
1.63
3.42
-9.50
-37.25
-73.78
-109.68
-136.78
-151.47
-154.77
-150.51
-142.98
-133.19
-122.27
-110.71
-99.30
-89.21
-81.55
-76.87
-74.96
-75.14
-75.84
-75.94
-74.86
-72.97
-71.28
-70.79
-71.96
-74.69
-78.53
-82.36
-85.32
-86.75
-86.47
-84.70
-81.77
-77.99
-73.56
-68.60
-62.90
-56.37
-49.04
-41.26
-33.66
-26.94
-21.69
-18.21
-16.49
-16.14
-16.61
-17.19
-17.27
-16.39
-14.41
-11.57
-8.42
-5.71
-4.11
-4.01
-5.36
-7.77
-10.70
-13.66
-16.44
-19.05
-21.72
-24.63
-27.86
-31.27
-34.59
-37.52
-39.84
-41.47
-42.46
-42.86
-42.65
-41.76
-40.09
-37.65
-34.66
-31.52
-28.62
-26.20
-24.25
-22.49
-20.59
-18.31
-15.68
-12.94
-10.41
-8.35
-6.86
-5.88
-5.24
-4.79
-4.39
-3.94
-3.37
-2.69
-1.95
-1.33
-1.04
-1.21
-1.83
-2.74
-3.67
-4.39
-4.84
-5.08
-5.30
-5.65
-6.21
-6.98
-7.91
-8.96
-10.12
-11.35
-12.65
-13.97
-15.24
-16.38
-17.24
-17.64
-17.42
-16.46
-14.78
-12.50
-9.83
-6.99
-4.15
-1.50
0.80
2.60
3.77
4.31
4.31
3.94
3.39
2.85
2.46
2.33
2.57
3.18
4.13
5.23
6.29
7.11
7.62
7.76
7.55
6.95
5.96
4.59
2.93
1.16
-0.50
-1.87
-2.86
-3.46
-3.81
-4.13
-4.64
-5.53
-6.90
-8.66
-10.62
-12.53
-14.12
-15.20
-15.65
-15.43
-14.54
-13.04
-11.04
-8.71
-6.25
-3.88
-1.81
-0.17
0.97
1.62
1.87
1.89
1.81
1.68
1.46
1.03
0.27
-0.81
-2.09
-3.32
-4.24
-4.71
-4.69
-4.28
-3.64
-2.94
-2.37
-2.07
-2.20
-2.86
-4.05
-5.68
-7.58
-9.50
-11.23
-12.61
-13.61
-14.28
-14.75
-15.15
-15.58
-16.03
-16.39
-16.46
-16.06
-15.02
-13.31
-11.02
-8.33
-5.46
-2.62
0.02
2.35
4.33
5.96
7.30
8.39
9.27
9.96
10.47
10.78
10.90
10.82
10.55
10.14
9.69
9.31
9.12
9.17
9.37
9.55
9.47
8.92
7.89
6.52
5.08
3.83
2.88
2.15
1.44
0.55
-0.60
-1.99
-3.48
-4.97
-6.46
-8.01
-9.70
-11.47
-13.05
-14.07
-14.14
-13.08
-10.98
-8.20
-5.22
-2.47
-0.23
1.45
2.62
3.37
3.77
3.89
3.75
3.47
3.17
2.99
3.01
3.24
3.57
3.86
3.98
3.88
3.57
3.20
2.92
2.83
2.93
3.11
3.18
2.96
2.39
1.50
0.38
-0.86
-2.21
-3.68
-5.32
-7.12
-9.00
-10.84
-12.50
-13.84
-14.79
-15.31
-15.32
-14.75
-13.51
-11.60
-9.12
-6.27
-3.32
-0.51
2.01
4.20
6.10
7.71
8.97
9.73
9.88
9.46
8.71
8.03
7.76
8.06
8.78
9.62
10.20
10.34
10.06
9.55
9.03
8.63
8.34
8.07
7.66
7.01
6.10
4.99
3.80
2.67
1.68
0.80
-0.04
-0.98
-2.10
-3.43
-4.95
-6.56
-8.21
-9.78
-11.13
-12.06
-12.33
-11.79
-10.41
-8.34
-5.84
-3.23
-0.77
1.38
3.13
4.46
5.38
5.93
6.17
6.21
6.17
6.20
6.37
6.72
7.23
7.85
8.51
9.09
9.51
9.70
9.65
9.43
9.16
8.92
8.74
8.49
8.00
7.15
5.96
4.60
3.34
2.40
1.78
1.35
0.85
0.09
-0.97
-2.26
-3.59
-4.84
-5.94
-6.87
-7.59
-8.04
-8.05
-7.50
-6.31
-4.47
-2.10
0.55
3.20
5.60
7.57
9.06
10.08
10.72
11.15
11.49
11.82
12.18
12.58
12.99
13.36
13.69
13.95
14.22
14.56
14.98
15.35
15.54
15.44
15.06
14.56
14.10
14.06
14.63
15.77
17.19
18.57
19.70
20.59
21.34
22.01
23.07
24.80
27.22
30.09
33.13
36.25
39.58
43.41
47.88
53.72
61.24
70.15
79.60
88.58
96.28
102.42
107.24
111.37
116.95
126.09
140.08
158.57
179.36
199.03
214.17
222.66
216.73
192.97
152.49
100.89
46.02
-5.33
-49.35
-84.95
-112.48
-132.78
-145.69
-151.52
-151.40
-147.24
-141.24
-135.13
-129.84
-125.48
-121.81
-117.61
-112.04
-104.91
-96.71
-88.34
-80.56
-73.69
-67.70
-62.42
-57.19
-51.57
-45.45
-39.02
-32.74
-27.12
-22.57
-19.31
-17.32
-16.02
-14.73
-12.84
-10.15
-6.85
-3.43
-0.38
2.04
3.85
5.36
6.86
8.44
9.95
11.08
11.55
11.27
10.13
8.21
5.68
2.75
-0.37
-3.52
-6.56
-9.39
-11.96
-14.23
-16.11
-17.47
-18.21
-18.24
-17.57
-16.23
-14.33
-11.96
-9.22
-6.19
-3.04
0.06
2.89
5.33
7.36
8.95
10.19
11.22
12.21
13.35
14.76
16.51
18.55
20.73
22.75
24.44
25.84
27.17
28.69
30.59
32.84
35.26
37.64
39.60
41.00
41.89
42.41
42.70
42.67
42.07
40.26
37.84
34.82
31.19
26.94
22.04
16.65
11.17
6.32
3.00
1.91
2.97
5.45
8.18
10.04
10.47
9.69
8.47
7.61
7.58
8.13
8.74
8.91
8.43
7.40
6.07
4.60
3.04
1.37
-0.50
-2.61
-4.84
-7.07
-9.22
-11.26
-13.29
-15.44
-17.87
-20.74
-24.11
-27.92
-31.96
-35.97
-39.75
-43.19
-46.41
-49.63
-53.18
-57.23
-61.77
-66.56
-71.27
-75.65
-79.60
-83.26
-86.78
-90.23
-93.41
-95.86
-97.03
-96.51
-94.16
-90.21
-85.11
-79.34
-73.26
-67.07
-60.84
-54.61
-48.52
-42.76
-37.53
-32.95
-28.96
-25.34
-21.82
-18.18
-14.32
-10.35
-6.49
-3.07
-0.31
1.71
3.09
4.02
4.74
5.37
5.94
6.42
6.73
6.90
7.02
7.15
7.34
7.50
7.45
6.94
5.87
4.24
2.25
0.18
-1.69
-3.09
-3.81
-3.69
-2.60
-0.49
2.58
6.36
10.46
14.45
17.94
20.71
22.67
23.86
24.40
24.38
23.94
23.22
22.39
21.64
21.10
20.82
20.75
20.76
20.71
20.50
20.08
19.47
18.75
17.98
17.13
16.17
15.00
13.52
11.72
9.68
7.53
5.45
3.56
1.88
0.35
-1.13
-2.66
-4.29
-6.05
-7.88
-9.72
-11.38
-12.64
-13.25
-12.96
-11.69
-9.50
-6.59
-3.21
0.35
3.89
7.24
10.28
12.89
14.96
16.48
17.43
17.89
17.95
17.72
17.31
16.88
16.56
16.44
16.50
16.62
16.63
16.35
15.73
14.84
13.84
12.86
11.94
11.01
9.91
8.57
6.98
5.32
3.77
2.50
1.51
0.70
-0.09
-1.05
-2.28
-3.84
-5.66
-7.60
-9.45
-10.92
-11.76
-11.81
-11.01
-9.41
-7.16
-4.45
-1.48
1.55
4.44
7.05
9.30
11.17
12.69
13.91
14.86
15.55
16.00
16.25
16.34
16.35
16.30
16.21
16.06
15.82
15.45
14.88
14.02
12.83
11.43
10.00
8.74
7.70
6.81
5.91
4.78
3.29
1.47
-0.46
-2.26
-3.73
-4.82
-5.62
-6.27
-6.97
-8.04
-9.72
-11.99
-14.59
-17.10
-19.00
-19.90
-19.55
-18.09
-16.38
-15.30
-15.24
-16.18
-17.71
-19.31
-20.68
-21.62
-22.31
-23.95
-27.41
-32.58
-38.75
-44.92
-50.17
-54.11
-56.51
-57.73
-59.75
-64.07
-70.73
-78.99
-87.58
-95.16
-100.72
-102.96
-100.85
-95.32
-87.29
-77.19
-65.96
-54.58
-43.22
-35.22
-31.89
-23.21
-3.98
22.05
49.56
72.38
85.97
89.34
85.23
79.30
77.03
79.92
87.00
96.43
106.02
114.35
121.07
126.40
130.88
134.48
135.33
131.98
124.86
115.71
107.15
101.68
100.67
104.14
110.69
117.50
122.34
124.65
125.05
124.80
124.96
125.79
126.80
127.05
125.27
121.01
114.95
108.49
103.15
99.82
98.31
97.27
94.67
88.36
77.07
60.90
41.17
19.82
-1.16
-20.26
-36.55
-49.57
-59.15
-65.35
-68.43
-68.92
-67.51
-64.98
-61.99
-59.04
-56.45
-54.36
-52.74
-51.41
-50.07
-48.43
-46.29
-43.60
-40.41
-36.78
-32.80
-28.68
-24.80
-21.81
-20.42
-21.11
-23.97
-28.56
-34.21
-40.21
-46.06
-51.39
-55.84
-58.98
-60.43
-60.25
-59.15
-58.51
-59.76
-63.76
-70.24
-77.82
-84.56
-88.83
-89.87
-87.86
-83.49
-77.20
-68.72
-57.22
-41.93
-23.01
-1.89
18.94
36.95
50.36
58.47
61.05
57.53
46.81
28.00
1.88
-28.11
-56.32
-76.82
-85.80
-83.16
-72.08
-57.03
-41.28
-25.50
-8.15
12.78
37.98
65.97
93.76
118.22
137.54
151.73
162.15
170.38
177.04
181.20
180.88
174.34
161.49
144.62
127.59
114.03
105.32
99.67
93.04
81.43
63.34
40.87
18.40
0.81
-8.88
-10.69
-7.41
-3.05
-1.03
-3.04
-8.79
-16.77
-24.26
-27.81
-24.06
-10.95
11.12
38.90
66.95
89.12
99.58
95.69
79.30
56.43
35.22
23.15
24.38
38.18
59.12
76.26
79.51
63.77
30.55
-13.66
-60.13
-100.02
-125.97
-133.71
-128.19
-117.30
-109.25
-110.87
-127.56
-162.07
-212.23
-270.78
-328.07
-384.20
-441.20
-499.62
-556.59
-607.57
-648.41
-675.84
-688.29
-687.19
-687.17
-700.21
-728.48
-763.66
-794.18
-812.61
-817.99
-814.51
-743.49
-579.90
-344.31
-92.03
128.53
298.41
420.71
506.11
564.88
604.55
620.10
608.97
576.31
534.30
494.94
464.79
445.03
433.89
428.72
419.30
398.93
368.03
333.20
301.62
277.06
259.82
248.56
241.68
232.94
218.20
197.47
174.29
152.33
133.24
116.66
101.77
88.13
73.31
55.92
36.31
16.05
-3.51
-21.88
-39.30
-55.72
-70.39
-82.73
-91.92
-97.14
-98.04
-95.38
-90.79
-86.68
-84.99
-86.22
-88.95
-90.18
-86.11
-73.42
-50.67
-18.86
17.42
51.25
75.72
86.43
83.21
70.42
55.23
42.55
38.67
47.17
67.99
98.05
132.64
166.96
196.98
219.89
233.92
238.97
235.64
225.39
210.50
193.70
177.58
164.09
154.01
146.59
140.12
131.78
119.03
100.86
78.39
54.52
32.75
15.68
4.31
-1.84
-4.54
-5.80
-7.23
-9.78
-13.76
-18.96
-24.70
-29.79
-32.55
-31.52
-26.01
-16.49
-4.51
7.83
18.59
26.66
31.84
34.35
34.05
30.28
22.22
9.56
-7.02
-26.01
-45.39
-63.21
-78.23
-90.04
-98.87
-105.21
-109.51
-112.24
-114.29
-116.47
-119.27
-122.66
-126.19
-129.13
-130.68
-130.28
-127.84
-124.72
-122.27
-121.13
-121.22
-122.24
-123.89
-125.85
-127.57
-128.46
-129.95
-132.99
-137.35
-142.04
-146.52
-150.97
-155.73
-160.73
-165.35
-171.56
-179.79
-188.16
-193.55
-194.02
-189.89
-182.79
-174.52
-166.26
-162.21
-164.10
-169.95
-175.69
-178.24
-176.98
-172.77
-166.72
-134.97
-69.20
18.79
105.43
173.64
219.07
245.14
257.96
263.42
265.82
263.59
255.60
242.93
228.76
216.24
206.98
201.56
199.54
199.44
196.28
186.71
170.98
151.16
131.04
114.01
102.36
97.90
99.93
102.74
100.28
89.49
71.10
48.29
24.37
2.26
-16.86
-33.05
-47.68
-61.16
-72.42
-79.47
-80.68
-78.09
-71.61
-62.62
-52.96
-44.35
-37.23
-30.90
-24.24
-16.48
-7.90
0.89
8.53
13.88
16.42
16.46
14.73
11.89
9.06
6.42
3.82
0.62
-3.46
-8.01
-12.14
-15.08
-16.86
-18.35
-20.83
-24.81
-29.86
-34.60
-37.55
-38.20
-37.46
-37.25
-39.34
-44.36
-51.16
-57.50
-61.05
-60.23
-54.72
-45.13
-32.41
-17.37
-0.53
17.74
36.71
54.98
70.53
81.13
84.88
80.79
68.92
50.45
27.43
2.63
-20.61
-38.77
-48.59
-47.86
-36.13
-15.09
11.58
39.20
63.32
81.04
91.60
96.19
96.86
95.28
91.67
84.94
73.30
55.60
32.12
4.71
-23.82
-50.74
-74.07
-92.82
-106.53
-114.78
-116.96
-112.51
-101.51
-85.17
-65.90
-46.67
-30.15
-17.76
-9.33
-3.48
1.47
6.78
13.12
21.27
32.48
48.21
69.00
93.24
116.75
133.90
139.87
132.75
114.36
89.16
62.06
36.46
13.56
-6.82
-24.93
-40.13
-51.17
-57.00
-57.74
-54.88
-50.56
-46.63
-44.04
-42.49
-40.84
-37.81
-32.58
-25.13
-16.24
-7.05
1.32
8.24
13.77
18.47
23.02
27.79
32.55
36.53
38.79
38.53
35.41
29.66
21.90
12.90
3.47
-5.70
-14.02
-20.93
-25.98
-28.81
-29.23
-27.28
-23.34
-17.99
-12.00
-6.21
-1.39
1.85
3.12
2.37
-0.20
-4.03
-8.37
-12.35
-15.25
-16.58
-16.30
-14.62
-11.96
-8.79
-5.51
-2.38
0.44
2.92
5.12
7.22
9.32
11.44
13.39
14.91
15.78
15.97
15.70
15.37
15.31
15.58
15.98
16.12
15.67
14.49
12.74
10.69
8.61
6.60
4.61
2.56
0.44
-1.68
-3.70
-5.61
-7.56
-9.75
-12.31
-15.11
-17.76
-19.73
-20.54
-20.01
-18.27
-15.71
-12.78
-9.86
-7.12
-4.64
-2.46
-0.69
0.45
0.80
0.39
-0.41
-0.98
-0.59
1.25
4.50
8.58
12.56
15.45
16.64
16.10
14.27
11.98
10.17
9.67
11.09
14.59
19.74
25.47
30.25
32.46
30.98
25.58
17.01
6.70
-3.79
-13.24
-20.89
-26.43
-29.69
-30.62
-29.28
-25.96
-21.20
-15.65
-9.86
-4.10
1.55
7.10
12.35
16.88
20.11
21.63
21.28
19.33
16.27
12.69
9.05
5.65
2.68
0.25
-1.54
-2.66
-3.14
-3.14
-2.92
-2.72
-2.70
-2.90
-3.29
-3.76
-4.22
-4.61
-4.87
-4.96
-4.85
-4.57
-4.19
-3.89
-3.85
-4.25
-5.22
-6.69
-8.40
-9.89
-10.64
-10.28
-8.75
-6.37
-3.69
-1.25
0.66
2.11
3.30
4.41
5.39
5.95
5.78
4.83
3.41
2.04
1.21
1.13
1.60
2.21
2.55
2.46
2.04
1.55
1.17
0.90
0.62
0.18
-0.37
-0.89
-1.18
-1.14
-0.79
-0.26
0.36
0.94
1.37
1.47
0.99
-0.25
-2.24
-4.66
-7.02
-8.82
-9.77
-9.90
-9.43
-8.61
-7.57
-6.28
-4.63
-2.62
-0.29
2.20
4.74
7.21
9.51
11.51
13.07
14.00
14.21
13.73
12.73
11.51
10.42
9.72
9.48
9.57
9.64
9.36
8.51
7.16
5.61
4.23
3.24
2.64
2.19
1.61
0.70
-0.53
-1.97
-3.46
-4.87
-6.15
-7.19
-7.84
-7.93
-7.27
-5.82
-3.68
-1.09
1.63
4.12
6.10
7.35
7.83
7.65
7.04
6.26
5.60
5.16
4.96
4.92
4.93
4.91
4.78
4.52
4.09
3.49
2.74
1.84
0.87
-0.13
-1.06
-1.84
-2.38
-2.69
-2.86
-3.14
-3.80
-5.04
-6.89
-9.09
-11.24
-12.84
-13.55
-13.20
-11.88
-9.80
-7.31
-4.72
-2.27
-0.09
1.78
3.35
4.65
5.65
6.34
6.66
6.63
6.34
5.94
5.54
5.23
5.01
4.84
4.68
4.52
4.39
4.26
4.02
3.51
2.58
1.18
-0.60
-2.51
-4.25
-5.60
-6.47
-6.99
-7.44
-8.17
-9.45
-11.34
-13.64
-15.89
-17.54
-18.10
-17.43
-15.54
-12.81
-9.82
-7.17
-5.29
-4.29
-4.03
-4.24
-4.62
-4.88
-4.95
-5.08
-5.73
-7.21
-9.47
-12.04
-14.20
-15.30
-14.79
-12.68
-9.68
-6.82
-4.98
-4.43
-4.85
-5.50
-5.64
-3.89
0.33
6.38
12.45
16.59
17.68
15.90
12.56
9.74
11.37
20.29
36.61
57.50
78.70
96.42
108.35
114.02
114.66
115.47
121.18
133.39
149.94
166.78
180.21
187.80
188.65
183.34
177.52
176.76
183.92
198.17
216.78
236.99
256.33
272.47
260.67
207.64
119.64
20.21
-67.40
-132.43
-175.32
-201.55
-216.97
-225.71
-226.36
-217.54
-200.72
-180.82
-163.33
-151.52
-145.81
-144.62
-145.50
-143.42
-135.03
-120.62
-103.81
-89.03
-79.02
-74.22
-73.31
-74.15
-72.91
-67.05
-56.73
-44.59
-33.95
-27.00
-24.11
-24.15
-25.24
-24.70
-21.03
-14.57
-7.33
-1.72
0.67
-0.72
-5.89
-14.59
-25.78
-37.61
-47.30
-51.46
-47.32
-34.15
-14.07
8.47
27.53
39.16
42.47
39.37
33.13
26.41
20.49
15.48
11.24
8.33
8.28
12.53
20.90
30.73
36.89
33.73
17.60
-10.78
-46.01
-79.70
-103.93
-114.88
-112.54
-100.73
-84.42
-67.36
-51.24
-36.31
-22.62
-10.94
-2.47
2.20
3.74
3.73
4.16
6.49
11.05
17.12
23.59
29.41
33.97
36.87
37.93
37.29
35.34
32.83
30.58
29.27
29.12
29.78
30.31
29.60
26.65
20.83
12.06
0.83
-11.71
-23.73
-33.12
-38.19
-38.24
-33.78
-26.29
-17.27
-7.60
2.78
14.54
28.37
44.34
61.46
77.50
89.21
93.08
86.48
68.82
42.37
11.95
-16.45
-37.56
-48.63
-49.92
-43.91
-33.81
-22.31
-10.91
-0.28
9.19
16.79
21.65
23.13
21.30
17.21
12.26
8.48
7.58
10.57
17.37
26.88
37.56
47.81
56.83
64.49
71.46
78.39
85.52
92.48
98.59
103.17
105.76
106.56
105.94
104.74
103.71
103.15
102.82
101.99
99.27
91.71
80.44
65.63
48.17
29.44
11.23
-4.30
-15.10
-19.81
-19.95
-17.31
-13.49
-9.49
-6.51
-5.85
-8.21
-13.38
-20.27
-31.19
-46.65
-64.62
-81.61
-95.43
-105.76
-112.96
-117.37
-118.97
-123.68
-134.72
-150.45
-166.48
-180.06
-190.92
-199.79
-207.15
-212.84
-224.29
-245.41
-273.66
-303.33
-331.33
-358.35
-386.75
-418.85
-406.59
-332.69
-220.60
-109.97
-22.83
38.97
81.81
112.38
135.30
153.36
160.64
154.76
140.44
125.92
116.54
113.33
114.86
119.28
125.27
126.17
118.54
104.68
89.97
78.24
70.84
67.73
68.36
71.83
73.18
69.02
59.76
48.39
37.55
28.72
22.39
18.22
15.17
10.06
0.81
-12.01
-25.73
-37.67
-45.90
-49.74
-49.83
-47.65
-45.53
-44.89
-46.22
-47.21
-45.94
-41.03
-32.02
-19.40
-4.51
10.89
24.97
36.20
43.99
48.01
48.84
47.58
45.28
42.70
40.10
37.30
33.58
28.10
19.94
8.96
-3.70
-15.99
-25.58
-30.86
-31.66
-29.37
-26.16
-24.14
-24.34
-26.40
-29.48
-33.05
-37.32
-42.99
-50.67
-60.30
-71.10
-81.90
-91.22
-98.43
-103.47
-107.10
-110.20
-113.33
-116.23
-117.47
-118.09
-117.38
-114.72
-110.01
-103.79
-96.96
-90.25
-83.83
-77.36
-70.41
-62.47
-53.86
-45.58
-38.83
-34.35
-32.25
-31.95
-32.61
-33.50
-33.89
-33.44
-32.00
-29.54
-26.00
-21.61
-17.04
-13.65
-13.08
-16.58
-24.58
-36.39
-50.31
-64.27
-76.51
-86.06
-92.70
-96.65
-97.93
-96.27
-91.31
-82.92
-71.54
-58.22
-44.20
-30.42
-17.14
-3.69
11.13
28.53
49.26
73.25
99.61
126.96
153.85
179.21
202.61
224.32
245.21
266.67
290.39
318.06
350.65
387.42
425.30
458.97
482.10
489.42
478.64
451.50
413.09
370.02
328.32
291.69
261.08
235.56
213.48
193.46
174.57
156.07
137.16
117.23
96.02
73.93
52.17
32.55
16.91
6.42
0.95
-0.88
-0.89
-1.13
-3.38
-8.74
-17.35
-28.54
-41.07
-53.44
-64.06
-70.35
-70.63
-64.97
-55.23
-44.15
-34.21
-26.91
-22.45
-20.04
-16.15
-8.11
4.48
19.90
35.76
50.35
62.64
72.05
78.21
84.64
93.96
106.34
119.47
130.49
137.55
140.10
138.51
133.75
131.76
136.94
149.87
167.59
186.57
204.87
221.93
237.43
220.98
157.44
53.22
-67.33
-179.76
-271.12
-339.12
-387.04
-419.91
-442.45
-453.56
-452.38
-440.53
-422.55
-403.36
-386.29
-372.81
-363.27
-357.28
-350.93
-340.14
-323.41
-302.39
-279.96
-258.64
-240.35
-226.56
-218.19
-213.03
-208.55
-202.71
-194.94
-185.37
-174.27
-162.11
-149.36
-136.14
-120.31
-102.46
-81.89
-57.79
-29.05
5.90
48.11
96.57
146.90
191.76
222.50
233.18
223.67
201.25
178.92
170.79
186.89
229.39
291.88
361.62
423.65
464.02
472.41
444.00
380.62
291.20
190.64
96.77
25.77
-12.32
-16.38
6.06
41.78
76.28
97.62
98.78
78.48
40.68
-6.42
-52.34
-86.73
-102.00
-95.71
-71.39
-37.18
-2.74
24.07
39.25
42.91
37.81
27.50
14.96
2.21
-9.38
-18.84
-25.56
-29.49
-31.29
-32.28
-34.00
-37.57
-43.18
-50.04
-56.57
-61.14
-62.78
-61.66
-58.95
-56.31
-55.13
-55.94
-58.31
-61.16
-63.34
-64.23
-63.89
-63.01
-62.49
-62.96
-64.53
-66.68
-68.55
-69.29
-68.42
-65.93
-62.18
-57.63
-52.57
-47.02
-40.88
-34.13
-26.98
-19.87
-13.32
-7.66
-3.08
0.48
3.11
4.82
5.57
5.26
3.87
1.50
-1.50
-4.69
-7.55
-9.63
-10.60
-10.31
-8.81
-6.38
-3.47
-0.60
1.72
3.22
3.81
3.68
3.15
2.54
2.21
2.46
3.57
5.77
9.06
13.15
17.37
20.97
23.30
24.21
24.08
23.63
23.65
24.64
26.66
29.48
32.70
35.98
39.09
41.79
43.79
44.71
44.19
42.07
38.56
34.15
29.54
25.32
21.83
19.06
16.72
14.40
11.75
8.62
5.06
1.30
-2.38
-5.78
-8.80
-11.46
-13.80
-15.81
-17.40
-18.44
-18.81
-18.49
-17.62
-16.44
-15.19
-14.02
-12.95
-11.84
-10.53
-8.89
-6.85
-4.41
-1.60
1.57
4.95
8.25
11.03
12.78
13.13
12.02
9.79
6.93
3.95
1.03
-1.92
-5.26
-9.28
-14.02
-19.22
-24.32
-28.65
-31.65
-32.93
-32.39
-30.22
-26.84
-22.80
-18.69
-15.05
-12.26
-10.49
-9.73
-9.77
-10.26
-10.84
-11.22
-11.32
-11.25
-11.28
-11.73
-12.81
-14.59
-16.93
-19.58
-22.18
-24.39
-26.01
-27.00
-27.52
-27.87
-28.42
-29.37
-30.73
-32.28
-33.66
-34.53
-34.68
-34.01
-32.52
-30.26
-27.30
-23.81
-20.00
-16.18
-12.67
-9.73
-7.50
-6.03
-5.24
-5.02
-5.28
-5.87
-6.65
-7.45
-8.10
-8.48
-8.56
-8.39
-8.12
-7.93
-7.96
-8.28
-8.90
-9.81
-11.00
-12.50
-14.29
-16.33
-18.43
-20.28
-21.49
-21.66
-20.56
-18.12
-14.49
-9.98
-4.91
0.41
5.73
10.75
15.11
18.47
20.55
21.33
21.08
20.23
19.27
18.50
18.00
17.65
17.29
16.77
16.10
15.36
14.65
14.01
13.32
12.36
10.79
8.31
4.72
0.13
-5.06
-10.18
-14.50
-17.42
-18.59
-17.99
-15.83
-12.45
-8.20
-3.40
1.58
6.39
10.61
13.87
15.97
16.86
16.70
15.75
14.29
12.50
10.48
8.23
5.77
3.12
0.32
-2.62
-5.73
-9.05
-12.63
-16.44
-20.44
-24.54
-28.64
-32.73
-36.85
-41.17
-45.88
-51.10
-56.71
-62.31
-67.20
-70.58
-71.79
-70.53
-67.04
-61.86
-55.67
-49.01
-42.15
-35.13
-27.96
-20.76
-13.80
-7.41
-1.85
2.86
6.96
10.85
14.98
19.65
24.91
30.55
36.15
41.18
45.20
47.88
49.10
48.88
47.41
44.96
41.87
38.49
35.08
31.78
28.55
25.26
21.74
17.91
13.82
9.68
5.75
2.34
-0.26
-1.81
-2.14
-1.14
1.16
4.58
8.84
13.57
18.37
22.91
26.87
30.05
32.29
33.49
33.62
32.79
31.19
29.09
26.80
24.58
22.59
20.87
19.35
17.94
16.49
14.91
13.13
11.15
8.99
6.73
4.46
2.31
0.42
-1.16
-2.48
-3.73
-5.21
-7.18
-9.73
-12.65
-15.42
-17.31
-17.67
-16.11
-12.58
-7.37
-0.94
6.21
13.61
20.82
27.42
33.01
37.31
40.24
41.95
42.78
43.13
43.31
43.47
43.61
43.67
43.64
43.53
43.40
43.27
43.07
42.60
41.59
39.76
36.92
32.99
28.02
22.13
15.50
8.25
0.51
-7.58
-15.75
-23.61
-30.55
-35.93
-39.21
-40.08
-38.60
-35.11
-30.17
-24.37
-18.30
-12.43
-7.19
-2.86
0.40
2.60
3.90
4.54
4.76
4.73
4.58
4.41
4.27
4.17
4.04
3.79
3.30
2.49
1.33
-0.20
-2.13
-4.58
-7.60
-11.17
-15.06
-18.94
-22.48
-25.58
-28.38
-31.24
-34.52
-38.43
-42.90
-47.65
-52.24
-56.18
-59.01
-60.33
-59.79
-57.15
-52.35
-45.55
-37.17
-27.73
-17.76
-7.71
2.07
11.29
19.62
26.74
32.32
36.15
38.24
38.88
38.62
38.10
37.87
38.17
38.88
39.57
39.74
39.04
37.45
35.22
32.69
30.08
27.37
24.43
21.11
17.46
13.73
10.20
7.04
4.20
1.43
-1.62
-5.19
-9.41
-14.26
-19.63
-25.31
-30.99
-36.21
-40.40
-43.02
-43.60
-41.96
-38.17
-32.47
-25.23
-16.79
-7.50
2.29
12.14
21.47
29.70
36.33
41.12
44.14
45.72
46.35
46.49
46.42
46.30
46.14
45.89
45.52
45.00
44.31
43.45
42.41
41.19
39.76
38.08
36.09
33.69
30.88
27.66
24.17
20.55
16.95
13.46
10.06
6.68
3.20
-0.50
-4.52
-8.92
-13.70
-18.80
-24.19
-29.79
-35.53
-41.31
-46.86
-51.77
-55.40
-57.07
-56.24
-52.71
-46.71
-38.85
-29.82
-20.24
-10.48
-0.74
8.77
17.72
25.66
32.15
36.89
39.93
41.57
42.27
42.51
42.60
42.73
42.89
42.98
42.87
42.45
41.65
40.44
38.85
36.92
34.68
32.19
29.48
26.54
23.39
20.01
16.34
12.39
8.17
3.81
-0.58
-4.94
-9.37
-14.08
-19.36
-25.40
-32.11
-39.12
-45.75
-51.23
-54.86
-56.18
-55.04
-51.58
-46.13
-39.13
-30.98
-22.02
-12.51
-2.74
6.94
16.02
23.97
30.29
34.75
37.42
38.65
38.91
38.62
38.01
37.15
36.06
34.84
33.68
32.77
32.18
31.76
31.18
30.10
28.30
25.86
23.08
20.32
17.85
15.71
13.74
11.69
9.33
6.63
3.67
0.63
-2.29
-5.06
-7.77
-10.67
-14.05
-18.14
-23.03
-28.66
-34.77
-40.94
-46.62
-51.12
-53.75
-53.97
-51.51
-46.53
-39.50
-31.08
-21.91
-12.40
-2.73
7.07
16.92
26.54
35.42
42.97
48.67
52.32
54.07
54.41
53.94
53.24
52.63
52.23
51.97
51.70
51.29
50.65
49.71
48.36
46.52
44.03
40.81
36.86
32.30
27.38
22.45
17.83
13.70
10.07
6.70
3.26
-0.57
-4.94
-9.80
-14.88
-19.88
-24.55
-28.78
-32.69
-36.49
-40.43
-44.73
-49.51
-54.77
-60.35
-65.91
-70.90
-74.67
-76.56
-76.10
-73.10
-67.71
-60.33
-51.46
-41.56
-30.98
-19.94
-8.63
2.67
13.59
23.58
32.07
38.63
43.10
45.71
46.99
47.58
47.96
48.31
48.50
48.30
47.58
46.43
45.12
43.92
42.93
42.05
41.00
39.57
37.68
35.47
33.19
31.03
29.05
27.11
24.99
22.45
19.37
15.75
11.74
7.54
3.34
-0.75
-4.72
-8.66
-12.65
-16.66
-20.55
-24.13
-27.19
-29.75
-32.02
-34.36
-37.18
-40.78
-45.28
-50.54
-56.22
-61.76
-66.49
-69.66
-70.66
-69.16
-65.18
-59.05
-51.28
-42.38
-32.77
-22.76
-12.64
-2.80
6.32
14.20
20.44
24.82
27.40
28.48
28.56
28.11
27.53
27.01
26.53
25.99
25.26
24.27
23.04
21.62
20.05
18.33
16.43
14.30
11.91
9.31
6.57
3.80
1.11
-1.52
-4.14
-6.92
-9.98
-13.39
-17.07
-20.79
-24.32
-27.45
-30.19
-32.74
-35.45
-38.69
-42.70
-47.44
-52.58
-57.52
-61.51
-63.83
-63.99
-61.80
-57.40
-51.15
-43.55
-35.01
-25.90
-16.46
-6.94
2.43
11.30
19.30
26.07
31.35
35.06
37.33
38.46
38.84
38.82
38.66
38.50
38.34
38.15
37.83
37.29
36.39
35.05
33.27
31.13
28.80
26.45
24.19
22.01
19.75
17.26
14.48
11.43
8.25
5.09
1.99
-1.14
-4.48
-8.14
-12.09
-16.11
-19.92
-23.31
-26.29
-29.08
-31.99
-35.28
-39.07
-43.37
-48.15
-53.41
-59.07
-64.86
-70.20
-74.29
-76.26
-75.53
-71.95
-65.89
-58.06
-49.16
-39.75
-30.04
-20.07
-9.82
0.58
10.79
20.29
28.51
35.00
39.57
42.34
43.69
44.12
44.08
43.87
43.59
43.24
42.77
42.19
41.57
40.99
40.43
39.81
38.97
37.77
36.21
34.42
32.64
31.07
29.80
28.74
27.70
26.45
24.87
22.95
20.81
18.59
16.38
14.10
11.58
8.66
5.24
1.40
-2.65
-6.64
-10.38
-13.83
-17.18
-20.75
-24.87
-29.78
-35.55
-42.02
-48.81
-55.32
-60.83
-64.63
-66.18
-65.22
-61.86
-56.50
-49.74
-42.16
-34.26
-26.31
-18.44
-10.72
-3.22
3.87
10.28
15.73
19.96
22.88
24.61
25.42
25.74
25.98
26.48
27.37
28.59
29.91
31.03
31.67
31.71
31.17
30.21
28.99
27.63
26.13
24.45
22.52
20.26
17.61
14.48
10.83
6.78
2.68
-0.87
-3.17
-3.68
-2.21
0.88
4.77
8.46
11.03
11.97
11.24
9.23
6.51
3.65
1.07
-0.96
-2.27
-2.71
-2.12
-0.38
2.52
6.44
11.16
16.46
22.19
28.31
34.82
41.52
47.98
53.49
57.22
58.44
56.79
52.36
45.69
37.54
28.63
19.41
10.00
0.32
-9.69
-19.78
-29.35
-37.49
-43.28
-46.05
-45.57
-42.10
-36.25
-28.82
-20.66
-12.58
-5.32
0.52
4.51
6.51
6.60
5.07
2.37
-1.07
-4.88
-8.81
-12.79
-16.87
-21.14
-25.65
-30.28
-34.82
-39.00
-42.65
-45.86
-48.94
-52.34
-56.35
-60.90
-65.48
-69.21
-71.19
-70.78
-67.86
-62.82
-56.41
-49.38
-42.28
-35.28
-28.25
-20.98
-13.37
-5.56
2.08
9.09
15.07
19.81
23.28
25.58
26.82
27.11
26.55
25.35
23.84
22.43
21.45
21.04
21.01
20.96
20.48
19.41
17.84
16.18
14.83
13.98
13.56
13.25
12.68
11.66
10.21
8.58
6.99
5.55
4.18
2.66
0.76
-1.63
-4.45
-7.52
-10.63
-13.68
-16.73
-19.98
-23.61
-27.69
-32.19
-37.01
-42.09
-47.48
-53.20
-59.02
-64.32
-68.10
-69.29
-67.21
-61.87
-53.97
-44.67
-35.04
-25.72
-16.86
-8.19
0.54
9.34
17.89
25.67
32.22
37.32
41.05
43.73
45.71
47.25
48.48
49.37
49.94
50.23
50.43
50.72
51.21
51.83
52.35
52.52
52.18
51.35
50.24
49.13
48.22
47.52
46.85
45.94
44.53
42.55
40.11
37.46
34.86
32.42
30.15
27.86
25.35
22.45
19.08
15.22
10.89
6.10
0.87
-4.69
-10.39
-15.96
-21.16
-25.92
-30.36
-34.81
-39.69
-45.35
-51.90
-59.07
-66.24
-72.52
-76.99
-78.89
-77.85
-73.97
-67.81
-60.17
-51.91
-43.69
-35.88
-28.57
-21.75
-15.39
-9.58
-4.44
-0.14
3.31
6.01
8.18
10.04
11.73
13.24
14.49
15.37
15.87
16.04
16.01
15.91
15.79
15.57
15.16
14.48
13.53
12.43
11.35
10.39
9.54
8.66
7.54
5.99
3.96
1.55
-1.06
-3.64
-6.09
-8.38
-10.61
-12.97
-15.67
-18.90
-22.83
-27.53
-32.85
-38.45
-43.73
-47.91
-50.22
-50.09
-47.32
-42.15
-35.19
-27.18
-18.85
-10.69
-2.94
4.33
11.07
17.17
22.39
26.43
29.10
30.43
30.69
30.43
30.15
30.20
30.60
31.09
31.31
31.00
30.17
29.11
28.18
27.62
27.37
27.18
26.72
25.77
24.32
22.54
20.65
18.78
16.92
14.86
12.41
9.40
5.85
1.86
-2.37
-6.69
-10.99
-15.27
-19.52
-23.76
-28.04
-32.45
-37.17
-42.37
-48.17
-54.40
-60.55
-65.80
-69.23
-70.12
-68.14
-63.44
-56.59
-48.33
-39.30
-29.99
-20.58
-11.11
-1.63
7.71
16.58
24.58
31.33
36.64
40.58
43.43
45.58
47.37
48.99
50.49
51.77
52.70
53.13
52.94
52.04
50.38
47.98
44.92
41.40
37.73
34.28
31.35
29.11
27.55
26.52
25.84
25.37
25.04
24.73
24.22
23.13
21.01
17.58
12.93
7.51
2.06
-2.70
-6.36
-8.94
-10.97
-13.29
-16.85
-22.36
-30.05
-39.49
-49.58
-58.84
-65.79
-69.33
-69.07
-65.31
-58.91
-50.95
-42.43
-34.09
-26.36
-19.41
-13.27
-7.93
-3.38
0.43
3.56
6.09
8.12
9.72
10.89
11.64
11.96
11.94
11.74
11.57
11.63
11.98
12.61
13.36
14.04
14.42
14.32
13.66
12.50
11.03
9.52
8.22
7.20
6.32
5.31
3.82
1.67
-1.15
-4.45
-7.94
-11.35
-14.61
-17.75
-20.98
-24.48
-28.40
-32.75
-37.30
-41.66
-45.24
-47.38
-47.53
-45.40
-41.05
-34.87
-27.46
-19.40
-11.19
-3.09
4.75
12.18
18.96
24.77
29.24
32.22
33.76
34.14
33.81
33.17
32.46
31.72
30.88
29.83
28.53
27.02
25.37
23.66
21.91
20.10
18.24
16.37
14.52
12.76
11.09
9.48
7.90
6.32
4.73
3.10
1.35
-0.66
-3.05
-5.90
-9.12
-12.51
-15.83
-18.96
-21.89
-24.78
-27.90
-31.46
-35.57
-40.16
-45.04
-49.85
-54.08
-57.13
-58.39
-57.41
-54.02
-48.42
-41.07
-32.56
-23.35
-13.73
-3.86
6.09
15.86
25.01
33.14
39.94
45.38
49.65
53.01
55.62
57.41
58.16
57.64
55.82
52.96
49.54
46.07
42.87
40.04
37.44
34.89
32.28
29.64
27.14
24.88
22.84
20.87
18.73
16.27
13.51
10.71
8.16
6.07
4.44
3.06
1.59
-0.24
-2.49
-5.01
-7.53
-9.81
-11.76
-13.49
-15.22
-17.19
-19.59
-22.51
-25.89
-29.56
-33.13
-36.01
-37.45
-36.68
-33.15
-26.73
-17.74
-6.94
4.73
16.40
27.33
37.01
45.00
50.93
54.47
55.40
53.65
49.34
42.72
34.13
24.01
12.83
1.17
-10.43
-21.45
-31.46
-40.10
-47.07
-52.03
-54.62
-54.54
-51.66
-46.16
-38.56
-29.73
-20.74
-12.69
-6.55
-3.01
-2.39
-4.57
-9.11
-15.31
-22.38
-29.60
-36.46
-42.69
-48.26
-53.31
-58.07
-62.67
-67.11
-71.22
-74.61
-76.72
-77.00
-75.01
-70.60
-63.97
-55.68
-46.43
-36.90
-27.60
-18.79
-10.57
-2.98
3.88
9.83
14.63
18.15
20.39
21.58
22.09
22.26
22.32
22.29
22.03
21.37
20.22
18.68
16.94
15.22
13.62
12.17
10.76
9.34
7.86
6.36
4.90
3.52
2.22
0.97
-0.29
-1.59
-2.99
-4.59
-6.46
-8.68
-11.17
-13.74
-16.12
-18.05
-19.48
-20.65
-21.99
-24.00
-27.01
-30.95
-35.34
-39.35
-42.04
-42.62
-40.69
-36.29
-29.87
-22.11
-13.70
-5.18
3.14
11.16
18.84
26.03
32.52
38.02
42.33
45.44
47.59
49.11
50.30
51.34
52.22
52.83
53.07
52.95
52.57
52.11
51.66
51.22
50.66
49.82
48.52
46.70
44.36
41.54
38.34
34.87
31.26
27.72
24.39
21.41
18.78
16.37
14.00
11.54
8.96
6.42
4.11
2.23
0.82
-0.22
-1.13
-2.21
-3.73
-5.85
-8.54
-11.51
-14.20
-15.91
-15.92
-13.77
-9.40
-3.14
4.32
12.22
19.92
27.01
33.32
38.82
43.48
47.17
49.71
50.95
50.88
49.69
47.71
45.29
42.70
40.02
37.26
34.42
31.59
28.93
26.55
24.46
22.46
20.30
17.78
14.85
11.60
8.24
4.90
1.66
-1.50
-4.66
-7.85
-11.06
-14.29
-17.55
-20.87
-24.25
-27.66
-30.97
-34.02
-36.70
-38.94
-40.77
-42.31
-43.65
-44.87
-46.10
-47.41
-48.91
-50.58
-52.28
-53.59
-53.98
-52.92
-50.08
-45.49
-39.48
-32.60
-25.46
-18.55
-12.26
-6.85
-2.46
0.85
3.19
4.80
6.07
7.32
8.76
10.39
12.02
13.41
14.42
15.01
15.32
15.49
15.59
15.62
15.49
15.12
14.54
13.83
13.10
12.41
11.70
10.78
9.48
7.69
5.51
3.18
0.98
-0.90
-2.47
-3.88
-5.37
-7.15
-9.31
-11.86
-14.79
-18.07
-21.68
-25.41
-28.86
-31.44
-32.52
-31.72
-29.07
-25.02
-20.23
-15.38
-10.88
-6.88
-3.35
-0.26
2.29
4.11
5.08
5.27
4.98
4.66
4.66
5.15
6.00
6.93
7.64
7.97
7.94
7.68
7.29
6.82
6.24
5.52
4.63
3.62
2.57
1.55
0.60
-0.26
-1.07
-1.90
-2.90
-4.19
-5.86
-7.90
-10.19
-12.50
-14.65
-16.52
-18.15
-19.75
-21.61
-24.00
-27.08
-30.74
-34.61
-38.18
-40.82
-41.99
-41.34
-38.77
-34.42
-28.66
-21.95
-14.80
-7.63
-0.74
5.70
11.62
16.97
21.63
25.46
28.28
30.02
30.80
30.85
30.56
30.24
30.14
30.29
30.62
30.99
31.31
31.56
31.75
31.88
31.85
31.48
30.60
29.13
27.20
25.10
23.18
21.68
20.66
19.91
19.06
17.66
15.38
12.09
7.94
3.31
-1.35
-5.67
-9.52
-13.01
-16.41
-20.04
-24.08
-28.58
-33.35
-38.05
-42.19
-45.24
-46.70
-46.25
-43.80
-39.60
-34.13
-28.06
-21.95
-16.22
-11.09
-6.57
-2.64
0.67
3.27
4.96
5.59
5.14
3.80
1.93
-0.01
-1.67
-2.87
-3.63
-4.19
-4.81
-5.70
-6.91
-8.32
-9.69
-10.77
-11.41
-11.61
-11.55
-11.49
-11.66
-12.13
-12.87
-13.77
-14.74
-15.80
-16.96
-18.23
-19.54
-20.88
-22.27
-23.92
-26.14
-29.21
-33.20
-37.78
-42.22
-45.59
-47.01
-45.93
-42.37
-36.83
-30.10
-23.01
-16.15
-9.83
-4.08
1.14
5.82
9.90
13.26
15.83
17.63
18.80
19.53
19.97
20.21
20.29
20.23
20.04
19.79
19.51
19.28
19.09
18.88
18.54
17.92
16.92
15.54
13.88
12.09
10.34
8.71
7.14
5.49
3.58
1.31
-1.32
-4.13
-6.94
-9.59
-12.09
-14.65
-17.53
-21.02
-25.26
-30.13
-35.31
-40.25
-44.36
-47.00
-47.72
-46.30
-42.80
-37.52
-30.91
-23.46
-15.56
-7.49
0.54
8.37
15.81
22.66
28.69
33.73
37.64
40.37
42.00
42.70
42.77
42.58
42.46
42.62
43.05
43.52
43.74
43.38
42.28
40.45
38.02
35.16
32.01
28.67
25.17
21.61
18.09
14.71
11.50
8.39
5.23
1.87
-1.75
-5.56
-9.33
-12.86
-16.03
-18.90
-21.69
-24.78
-28.46
-32.82
-37.63
-42.29
-46.01
-47.99
-47.76
-45.29
-40.97
-35.43
-29.33
-23.12
-17.06
-11.27
-5.91
-1.18
2.72
5.69
7.84
9.49
10.99
12.56
14.22
15.78
16.95
17.53
17.50
17.04
16.39
15.76
15.20
14.65
13.92
12.89
11.51
9.86
8.06
6.23
4.45
2.76
1.17
-0.30
-1.67
-2.94
-4.20
-5.61
-7.36
-9.67
-12.64
-16.24
-20.23
-24.25
-27.78
-30.28
-31.29
-30.50
-27.84
-23.46
-17.73
-11.07
-4.00
3.02
9.60
15.46
20.45
24.57
27.85
30.40
32.33
33.76
34.79
35.57
36.20
36.79
37.33
37.77
37.99
37.87
37.34
36.40
35.07
33.39
31.42
29.23
26.89
24.46
21.94
19.28
16.37
13.17
9.68
5.99
2.19
-1.70
-5.71
-9.93
-14.47
-19.32
-24.43
-29.70
-35.01
-40.25
-45.25
-49.73
-53.22
-55.22
-55.30
-53.22
-49.08
-43.19
-36.06
-28.21
-20.09
-12.07
-4.40
2.72
9.10
14.60
19.16
22.80
25.65
27.91
29.79
31.43
32.87
33.99
34.62
34.57
33.78
32.33
30.45
28.47
26.64
25.06
23.61
22.04
20.06
17.53
14.49
11.20
7.92
4.82
1.87
-1.08
-4.23
-7.71
-11.56
-15.80
-20.43
-25.40
-30.53
-35.35
-39.18
-41.25
-41.03
-38.37
-33.59
-27.36
-20.41
-13.28
-6.28
0.53
7.11
13.40
19.17
24.13
28.03
30.70
32.18
32.66
32.40
31.67
30.62
29.33
27.87
26.30
24.79
23.53
22.65
22.13
21.78
21.31
20.47
19.17
17.48
15.62
13.78
12.04
10.31
8.37
5.96
2.93
-0.69
-4.70
-8.82
-12.88
-16.85
-20.94
-25.41
-30.42
-35.81
-41.11
-45.57
-48.42
-49.06
-47.25
-43.15
-37.27
-30.27
-22.79
-15.36
-8.30
-1.85
3.88
8.78
12.78
15.90
18.27
20.14
21.80
23.45
25.12
26.65
27.80
28.35
28.26
27.69
26.92
26.19
25.55
24.88
23.94
22.49
20.45
17.90
15.06
12.20
9.53
7.15
5.04
3.08
1.14
-0.93
-3.30
-6.13
-9.53
-13.45
-17.66
-21.70
-24.97
-26.93
-27.20
-25.75
-22.87
-19.06
-14.83
-10.61
-6.67
-3.15
-0.16
2.22
3.91
4.90
5.27
5.19
4.90
4.60
4.44
4.44
4.50
4.48
4.27
3.88
3.38
2.92
2.57
2.29
1.91
1.18
-0.06
-1.85
-4.02
-6.27
-8.29
-9.88
-11.05
-12.01
-13.12
-14.76
-17.23
-20.60
-24.67
-28.97
-32.85
-35.67
-36.90
-36.31
-33.91
-29.96
-24.79
-18.74
-12.15
-5.29
1.53
8.08
14.11
19.44
23.90
27.35
29.65
30.77
30.83
30.13
29.08
28.06
27.32
26.83
26.44
25.94
25.16
24.09
22.78
21.32
19.74
18.02
16.08
13.87
11.40
8.71
5.94
3.19
0.52
-2.07
-4.69
-7.44
-10.41
-13.67
-17.21
-20.96
-24.81
-28.54
-31.82
-34.25
-35.39
-34.91
-32.68
-28.79
-23.55
-17.36
-10.63
-3.70
3.19
9.82
16.05
21.75
26.87
31.37
35.27
38.53
41.16
43.16
44.54
45.39
45.78
45.79
45.46
44.82
43.91
42.78
41.49
40.05
38.40
36.40
33.97
31.10
27.91
24.59
21.31
18.19
15.20
12.24
9.16
5.84
2.25
-1.60
-5.61
-9.64
-13.61
-17.56
-21.61
-26.00
-30.89
-36.22
-41.54
-46.13
-49.12
-49.85
-48.05
-43.99
-38.33
-31.90
-25.43
-19.37
-13.91
-9.09
-4.93
-1.55
0.95
2.55
3.42
3.93
4.51
5.45
6.76
8.20
9.34
9.83
9.54
8.61
7.33
5.97
4.65
3.35
1.95
0.37
-1.36
-3.16
-4.95
-6.73
-8.58
-10.58
-12.79
-15.17
-17.59
-19.92
-22.07
-24.05
-26.02
-28.26
-31.05
-34.53
-38.66
-43.17
-47.56
-51.25
-53.66
-54.38
-53.17
-50.02
-45.13
-38.88
-31.79
-24.43
-17.39
-11.13
-5.93
-1.83
1.38
4.04
6.54
9.15
11.98
14.99
18.04
21.05
23.97
26.80
29.48
31.82
33.60
34.60
34.78
34.30
33.53
32.77
32.19
31.69
30.94
29.54
27.22
23.96
19.96
15.64
11.40
7.52
4.08
1.00
-1.92
-4.94
-8.28
-12.14
-16.57
-21.48
-26.49
-31.05
-34.45
-36.07
-35.52
-32.86
-28.54
-23.25
-17.73
-12.48
-7.69
-3.24
1.08
5.40
9.61
13.44
16.52
18.61
19.71
20.00
19.76
19.25
18.65
18.07
17.59
17.26
17.11
17.13
17.17
17.06
16.59
15.66
14.26
12.50
10.56
8.68
7.07
5.87
5.09
4.63
4.22
3.61
2.62
1.24
-0.31
-1.70
-2.66
-3.11
-3.27
-3.59
-4.52
-6.32
-8.97
-12.12
-15.24
-17.79
-19.30
-19.52
-18.36
-15.87
-12.26
-7.85
-3.01
1.90
6.66
11.16
15.43
19.47
23.22
26.50
29.05
30.67
31.29
31.05
30.25
29.25
28.29
27.49
26.80
26.07
25.21
24.13
22.78
21.16
19.24
17.05
14.67
12.21
9.82
7.60
5.53
3.53
1.48
-0.74
-3.16
-5.77
-8.49
-11.22
-13.86
-16.32
-18.54
-20.57
-22.50
-24.53
-26.82
-29.42
-32.17
-34.71
-36.51
-37.06
-36.03
-33.36
-29.30
-24.28
-18.81
-13.33
-8.12
-3.37
0.80
4.30
7.06
9.04
10.30
10.99
11.31
11.45
11.54
11.64
11.68
11.58
11.25
10.63
9.71
8.51
7.07
5.43
3.65
1.75
-0.19
-2.04
-3.68
-4.98
-5.97
-6.81
-7.74
-9.04
-10.82
-13.02
-15.44
-17.85
-20.15
-22.41
-24.85
-27.71
-31.09
-34.89
-38.71
-42.03
-44.30
-45.07
-44.13
-41.52
-37.51
-32.47
-26.82
-20.94
-15.13
-9.63
-4.59
-0.05
4.03
7.72
11.07
14.07
16.60
18.56
19.89
20.64
21.04
21.35
21.79
22.44
23.23
23.99
24.49
24.52
24.02
23.04
21.73
20.28
18.84
17.40
15.84
14.01
11.82
9.36
6.84
4.50
2.44
0.59
-1.25
-3.32
-5.73
-8.46
-11.39
-14.40
-17.35
-20.09
-22.32
-23.70
-23.88
-22.69
-20.20
-16.74
-12.69
-8.45
-4.22
-0.12
3.82
7.54
10.98
13.99
16.43
18.19
19.21
19.58
19.50
19.29
19.27
19.59
20.23
21.00
21.64
21.93
21.81
21.30
20.50
19.48
18.28
16.87
15.25
13.36
11.19
8.77
6.18
3.57
1.06
-1.29
-3.58
-6.01
-8.81
-12.12
-15.86
-19.81
-23.66
-27.07
-29.78
-31.58
-32.31
-31.86
-30.19
-27.32
-23.45
-18.89
-14.01
-9.23
-4.86
-1.13
1.86
4.11
5.68
6.70
7.26
7.52
7.58
7.56
7.55
7.57
7.60
7.59
7.46
7.12
6.51
5.61
4.48
3.19
1.82
0.44
-0.96
-2.37
-3.85
-5.32
-6.72
-8.04
-9.37
-10.91
-12.93
-15.59
-18.91
-22.69
-26.62
-30.30
-33.35
-35.44
-36.29
-35.74
-33.78
-30.57
-26.43
-21.74
-16.92
-12.31
-8.16
-4.64
-1.83
0.29
1.83
3.00
4.00
4.98
6.00
6.96
7.70
8.05
7.91
7.31
6.35
5.24
4.15
3.15
2.24
1.37
0.42
-0.64
-1.87
-3.29
-4.95
-6.87
-9.02
-11.29
-13.55
-15.74
-17.93
-20.26
-22.89
-25.85
-28.94
-31.77
-33.82
-34.64
-33.94
-31.70
-28.10
-23.42
-17.94
-11.86
-5.34
1.44
8.23
14.67
20.42
25.20
28.95
31.78
33.90
35.47
36.54
37.11
37.18
36.86
36.28
35.57
34.76
33.76
32.41
30.66
28.51
26.08
23.54
21.00
18.52
16.06
13.57
10.95
8.11
5.02
1.68
-1.87
-5.59
-9.52
-13.76
-18.40
-23.46
-28.68
-33.58
-37.53
-39.91
-40.35
-38.83
-35.58
-31.01
-25.57
-19.62
-13.41
-7.13
-0.92
5.10
10.85
16.26
21.24
25.72
29.59
32.77
35.19
36.89
37.94
38.49
38.68
38.68
38.63
38.68
38.89
39.25
39.59
39.65
39.23
38.22
36.75
35.04
33.37
31.90
30.57
29.22
27.60
25.54
22.98
19.98
16.64
13.08
9.45
5.87
2.54
-0.49
-3.25
-5.95
-8.89
-12.31
-16.21
-20.26
-23.94
-26.60
-27.73
-27.09
-24.70
-20.82
-15.81
-10.14
-4.20
1.63
7.07
11.86
15.85
18.89
20.91
21.95
22.14
21.76
21.07
20.34
19.65
18.93
18.01
16.74
15.10
13.21
11.29
9.58
8.23
7.23
6.47
5.74
4.88
3.79
2.46
0.94
-0.72
-2.49
-4.38
-6.39
-8.54
-10.83
-13.24
-15.74
-18.36
-21.12
-24.06
-27.08
-30.00
-32.45
-33.99
-34.20
-32.84
-29.96
-25.84
-20.88
-15.48
-9.89
-4.26
1.31
6.68
11.55
15.60
18.58
20.43
21.32
21.57
21.57
21.62
21.88
22.37
23.00
23.67
24.26
24.62
24.59
23.99
22.68
20.62
17.96
14.95
11.92
9.11
6.61
4.32
2.03
-0.49
-3.32
-6.36
-9.41
-12.26
-14.84
-17.27
-19.86
-22.90
-26.57
-30.73
-34.95
-38.57
-40.95
-41.62
-40.43
-37.54
-33.28
-28.06
-22.20
-15.92
-9.39
-2.75
3.76
9.86
15.25
19.72
23.24
25.90
27.90
29.40
30.47
31.07
31.17
30.80
30.13
29.38
28.76
28.30
27.89
27.30
26.33
24.94
23.27
21.58
20.09
18.91
17.97
17.07
16.01
14.65
12.93
10.89
8.53
5.84
2.77
-0.74
-4.64
-8.86
-13.29
-17.79
-22.22
-26.39
-30.06
-32.89
-34.56
-34.81
-33.52
-30.75
-26.73
-21.78
-16.33
-10.71
-5.26
-0.15
4.44
8.42
11.67
14.05
15.55
16.25
16.37
16.20
15.97
15.76
15.50
15.07
14.40
13.54
12.64
11.87
11.33
11.01
10.79
10.57
10.27
9.86
9.36
8.79
8.12
7.32
6.33
5.09
3.55
1.71
-0.37
-2.56
-4.79
-7.03
-9.39
-12.09
-15.33
-19.18
-23.45
-27.75
-31.51
-34.18
-35.41
-35.07
-33.33
-30.51
-26.99
-23.12
-19.14
-15.23
-11.54
-8.27
-5.62
-3.79
-2.82
-2.53
-2.57
-2.56
-2.24
-1.56
-0.70
0.11
0.71
1.11
1.41
1.70
2.00
2.20
2.21
1.98
1.57
1.10
0.62
0.14
-0.44
-1.25
-2.35
-3.78
-5.47
-7.34
-9.25
-11.05
-12.60
-13.85
-14.86
-15.85
-17.13
-18.98
-21.51
-24.60
-27.84
-30.66
-32.48
-32.88
-31.66
-28.94
-25.02
-20.27
-15.12
-9.87
-4.74
0.12
4.62
8.71
12.37
15.62
18.44
20.81
22.64
23.84
24.33
24.18
23.54
22.66
21.77
21.03
20.45
19.97
19.44
18.71
17.71
16.41
14.83
13.08
11.24
9.42
7.66
5.96
4.28
2.62
0.98
-0.63
-2.21
-3.88
-5.77
-8.02
-10.66
-13.64
-16.85
-20.17
-23.55
-26.94
-30.16
-32.84
-34.45
-34.51
-32.79
-29.43
-24.89
-19.75
-14.50
-9.37
-4.37
0.57
5.43
10.03
14.14
17.52
20.08
21.91
23.18
24.11
24.81
25.32
25.58
25.53
25.17
24.55
23.80
23.02
22.26
21.46
20.49
19.21
17.61
15.78
13.93
12.23
10.79
9.56
8.37
7.04
5.46
3.62
1.63
-0.39
-2.28
-3.97
-5.53
-7.11
-8.90
-11.05
-13.61
-16.44
-19.27
-21.72
-23.44
-24.15
-23.69
-22.01
-19.20
-15.43
-11.00
-6.22
-1.41
3.18
7.37
11.08
14.27
16.88
18.87
20.23
21.07
21.53
21.88
22.32
22.90
23.51
23.89
23.75
22.92
21.44
19.49
17.37
15.31
13.42
11.71
10.11
8.60
7.17
5.83
4.54
3.23
1.80
0.15
-1.78
-4.05
-6.68
-9.67
-12.98
-16.55
-20.26
-23.93
-27.36
-30.35
-32.66
-34.04
-34.28
-33.23
-30.89
-27.39
-23.01
-18.16
-13.27
-8.73
-4.91
-2.04
-0.29
0.33
-0.05
-1.16
-2.57
-3.79
-4.37
-4.00
-2.66
-0.68
1.42
3.04
3.77
3.56
2.69
1.57
0.56
-0.18
-0.80
-1.54
-2.66
-4.26
-6.25
-8.43
-10.58
-12.54
-14.25
-15.78
-17.27
-18.89
-20.80
-23.10
-25.88
-29.11
-32.66
-36.24
-39.35
-41.38
-41.76
-40.18
-36.68
-31.71
-25.96
-20.06
-14.47
-9.29
-4.43
0.28
4.85
9.13
12.84
15.74
17.69
18.81
19.32
19.53
19.64
19.75
19.83
19.82
19.75
19.70
19.75
19.89
19.98
19.85
19.33
18.39
17.16
15.81
14.54
13.39
12.29
11.10
9.66
7.84
5.59
2.91
-0.10
-3.31
-6.63
-10.02
-13.54
-17.28
-21.25
-25.27
-28.95
-31.81
-33.38
-33.39
-31.84
-28.93
-24.99
-20.37
-15.34
-10.15
-5.01
-0.13
4.27
7.97
10.82
12.73
13.75
14.07
13.97
13.79
13.76
13.98
14.36
14.71
14.86
14.70
14.26
13.63
12.91
12.16
11.38
10.52
9.53
8.37
7.01
5.43
3.59
1.49
-0.84
-3.33
-5.80
-8.01
-9.78
-11.04
-11.90
-12.63
-13.58
-14.97
-16.86
-19.02
-21.06
-22.49
-22.90
-22.02
-19.77
-16.22
-11.54
-6.03
-0.01
6.14
12.07
17.42
21.97
25.57
28.21
29.93
30.82
30.95
30.35
29.06
27.22
25.04
22.88
21.06
19.76
18.92
18.29
17.49
16.30
14.66
12.73
10.71
8.76
6.84
4.86
2.65
0.15
-2.57
-5.37
-8.10
-10.70
-13.23
-15.81
-18.59
-21.67
-25.08
-28.75
-32.60
-36.51
-40.30
-43.73
-46.49
-48.19
-48.48
