1532335511.000000
4.000000
0.000000
0.234427
0.311288
0.313851
0.315132
0.315132
0.315132
0.315132
0.315132
0.315132
0.315132
0.312569
0.313851
0.312569
0.312569
0.310007
0.310007
0.311288
0.307445
0.304883
0.301040
0.301040
0.299759
0.298478
0.295916
0.297197
0.295916
0.294635
0.294635
0.293354
0.292073
0.292073
0.292073
0.289511
0.289511
0.288230
0.289511
0.286949
0.286949
0.285668
0.285668
0.285668
0.286949
0.285668
0.284387
0.284387
0.284387
0.284387
0.283106
0.283106
0.281825
0.283106
0.281825
0.281825
0.280544
0.280544
0.281825
0.280544
0.281825
0.279263
0.280544
0.280544
0.280544
0.279263
0.277982
0.280544
0.280544
0.277982
0.277982
0.279263
0.277982
0.277982
0.277982
0.277982
0.275420
0.277982
0.277982
0.283106
0.285668
0.288230
0.284387
0.277982
0.281825
0.277982
0.280544
0.279263
0.280544
0.279263
0.280544
0.283106
0.281825
0.281825
0.281825
0.280544
0.281825
0.281825
0.280544
0.280544
0.280544
0.280544
0.280544
0.280544
0.280544
0.279263
0.280544
0.279263
0.279263
0.277982
0.279263
0.277982
0.279263
0.281825
0.276701
0.279263
0.276701
0.276701
0.275420
0.274139
0.275420
0.275420
0.275420
0.272858
0.272858
0.274139
0.274139
0.271577
0.271577
0.271577
0.271577
0.271577
0.271577
0.271577
0.271577
0.270296
0.269015
0.271577
0.270296
0.269015
0.269015
0.270296
0.269015
0.269015
0.267734
0.267734
0.269015
0.269015
0.269015
0.267734
0.267734
0.269015
0.267734
0.265172
0.269015
0.263891
0.266453
0.265172
0.263891
0.265172
0.265172
0.263891
0.265172
0.263891
0.266453
0.262610
0.263891
0.263891
0.263891
0.262610
0.263891
0.263891
0.263891
0.263891
0.262610
0.262610
0.261329
0.262610
0.262610
0.261329
0.261329
0.263891
0.262610
0.261329
0.261329
0.261329
0.262610
0.260048
0.261329
0.260048
0.260048
0.260048
0.261329
0.261329
0.261329
0.261329
0.260048
0.260048
0.261329
0.260048
0.258767
0.258767
0.260048
0.263891
0.275420
0.275420
0.274139
0.276701
0.270296
0.269015
0.270296
0.266453
0.267734
0.266453
0.266453
0.263891
0.263891
0.265172
0.263891
0.262610
0.263891
0.262610
0.266453
0.265172
0.265172
0.263891
0.263891
0.263891
0.265172
0.263891
0.262610
0.263891
0.267734
0.265172
0.265172
0.265172
0.266453
0.266453
0.266453
0.266453
0.267734
0.266453
0.266453
0.269015
0.270296
0.267734
0.266453
0.267734
0.267734
0.266453
0.267734
0.266453
0.266453
0.267734
0.267734
0.266453
0.266453
0.266453
0.269015
0.266453
0.267734
0.266453
0.266453
0.267734
0.267734
0.266453
0.266453
0.266453
0.267734
0.266453
0.266453
0.266453
0.266453
0.266453
0.266453
0.266453
0.271577
0.266453
0.266453
0.269015
0.267734
0.267734
0.266453
0.265172
0.266453
0.266453
0.267734
0.265172
0.265172
0.266453
0.266453
0.271577
0.265172
0.265172
0.266453
0.265172
0.265172
0.266453
0.265172
0.265172
0.266453
0.266453
0.266453
0.265172
0.266453
0.266453
0.263891
0.265172
0.263891
0.263891
0.263891
0.266453
0.266453
0.265172
0.263891
0.266453
0.265172
0.265172
0.265172
0.263891
0.265172
0.262610
0.262610
0.267734
0.267734
0.263891
0.265172
0.263891
0.265172
0.263891
0.263891
0.265172
0.263891
0.263891
0.266453
0.263891
0.263891
0.261329
0.262610
0.262610
0.262610
0.262610
0.263891
0.262610
0.263891
0.261329
0.263891
0.267734
0.262610
0.263891
0.262610
0.262610
0.261329
0.262610
0.262610
0.261329
0.262610
0.262610
0.262610
0.261329
0.263891
0.261329
0.261329
0.261329
0.262610
0.261329
0.262610
0.261329
0.262610
0.262610
0.262610
0.262610
0.260048
0.261329
0.262610
0.261329
0.260048
0.261329
0.260048
0.262610
0.261329
0.261329
0.258767
0.260048
0.260048
0.258767
0.260048
0.260048
0.260048
0.260048
0.262610
0.261329
0.261329
0.262610
0.261329
0.261329
0.260048
0.262610
0.260048
0.261329
0.261329
0.261329
0.261329
0.263891
0.263891
0.261329
0.261329
0.261329
0.262610
0.261329
0.261329
0.263891
0.263891
0.262610
0.262610
0.261329
0.262610
0.262610
0.263891
0.262610
0.262610
0.266453
0.263891
0.263891
0.262610
0.266453
0.262610
0.263891
0.263891
0.267734
0.262610
0.262610
0.263891
0.263891
0.263891
0.262610
0.262610
0.262610
0.263891
0.262610
0.267734
0.262610
0.261329
0.263891
0.263891
0.262610
0.261329
0.261329
0.261329
0.263891
0.260048
0.258767
0.263891
0.260048
0.260048
0.262610
0.260048
0.260048
0.260048
0.260048
0.261329
0.260048
0.261329
0.261329
0.262610
0.262610
0.263891
0.266453
0.263891
0.262610
0.263891
0.263891
0.266453
0.279263
0.285668
0.283106
0.283106
0.285668
0.283106
0.284387
0.280544
0.269015
0.263891
0.266453
0.267734
0.269015
0.265172
0.258767
0.253642
0.248518
0.248518
0.247237
0.247237
0.247237
0.247237
0.247237
0.248518
0.245956
0.245956
0.247237
0.245956
0.247237
0.245956
0.245956
0.245956
0.245956
0.247237
0.248518
0.245956
0.245956
0.245956
0.245956
0.239551
0.238270
0.239551
0.242113
0.239551
0.239551
0.239551
0.238270
0.238270
0.239551
0.239551
0.238270
0.239551
0.238270
0.236989
0.239551
0.236989
0.228022
0.224179
0.225460
0.226741
0.226741
0.225460
0.228022
0.226741
0.228022
0.228022
0.228022
0.229303
0.229303
0.228022
0.233146
0.243394
0.239551
0.238270
0.238270
0.238270
0.239551
0.239551
0.240832
0.240832
0.240832
0.239551
0.242113
0.239551
0.242113
0.243394
0.243394
0.244675
0.244675
0.244675
0.244675
0.245956
0.244675
0.245956
0.245956
0.245956
0.245956
0.245956
0.247237
0.258767
0.256205
0.267734
0.288230
0.288230
0.290792
0.281825
0.277982
0.284387
0.274139
0.269015
0.265172
0.267734
0.280544
0.311288
0.293354
0.269015
0.265172
0.266453
0.263891
0.267734
0.266453
0.262610
0.262610
0.257486
0.256205
0.256205
0.256205
0.253642
0.261329
0.266453
0.277982
0.284387
0.285668
0.288230
0.281825
0.261329
0.261329
0.263891
0.262610
0.261329
0.262610
0.262610
0.261329
0.262610
0.260048
0.262610
0.263891
0.266453
0.266453
0.265172
0.265172
0.265172
0.265172
0.263891
0.261329
0.262610
0.261329
0.263891
0.270296
0.272858
0.271577
0.270296
0.265172
0.266453
0.266453
0.267734
0.265172
0.267734
0.270296
0.270296
0.272858
0.274139
0.270296
0.270296
0.270296
0.271577
0.271577
0.270296
0.267734
0.274139
0.267734
0.267734
0.267734
0.267734
0.267734
0.267734
0.266453
0.266453
0.266453
0.267734
0.267734
0.266453
0.267734
0.271577
0.266453
0.269015
0.269015
0.267734
0.271577
0.271577
0.271577
0.269015
0.269015
0.267734
0.266453
0.267734
0.267734
0.267734
0.267734
0.266453
0.266453
0.267734
0.266453
0.266453
0.267734
0.267734
0.267734
0.266453
0.266453
0.267734
0.267734
0.269015
0.269015
0.271577
0.266453
0.270296
0.267734
0.267734
0.267734
0.270296
0.266453
0.267734
0.267734
0.266453
0.267734
0.266453
0.267734
0.269015
0.267734
0.269015
0.267734
0.269015
0.267734
0.269015
0.269015
0.269015
0.272858
0.272858
0.267734
0.274139
0.269015
0.272858
0.267734
0.267734
0.267734
0.267734
0.269015
0.269015
0.270296
0.267734
0.267734
0.269015
0.266453
0.269015
0.269015
0.267734
0.267734
0.269015
0.269015
0.270296
0.269015
0.267734
0.269015
0.274139
0.269015
0.270296
0.270296
0.269015
0.269015
0.270296
0.270296
0.270296
0.269015
0.269015
0.269015
0.269015
0.269015
0.270296
0.270296
0.269015
0.270296
0.272858
0.270296
0.271577
0.270296
0.270296
0.271577
0.271577
0.271577
0.271577
0.271577
0.270296
0.271577
0.274139
0.269015
0.271577
0.270296
0.271577
0.270296
0.276701
0.270296
0.271577
0.271577
0.271577
0.270296
0.271577
0.272858
0.272858
0.270296
0.271577
0.271577
0.271577
0.271577
0.272858
0.272858
0.271577
0.271577
0.272858
0.272858
0.271577
0.271577
0.274139
0.271577
0.272858
0.271577
0.272858
0.272858
0.271577
0.271577
0.272858
0.271577
0.272858
0.271577
0.271577
0.271577
0.272858
0.272858
0.272858
0.272858
0.271577
0.275420
0.276701
0.272858
0.272858
0.272858
0.271577
0.271577
0.274139
0.272858
0.272858
0.272858
0.271577
0.276701
0.274139
0.274139
0.272858
0.272858
0.271577
0.272858
0.272858
0.271577
0.272858
0.272858
0.271577
0.271577
0.272858
0.272858
0.272858
0.272858
0.276701
0.272858
0.274139
0.274139
0.271577
0.271577
0.272858
0.272858
0.271577
0.272858
0.272858
0.277982
0.272858
0.276701
0.272858
0.275420
0.272858
0.274139
0.272858
0.272858
0.274139
0.272858
0.274139
0.272858
0.274139
0.272858
0.272858
0.277982
0.272858
0.274139
0.274139
0.272858
0.276701
0.274139
0.274139
0.274139
0.272858
0.274139
0.274139
0.274139
0.272858
0.272858
0.274139
0.274139
0.274139
0.272858
0.274139
0.274139
0.274139
0.272858
0.272858
0.274139
0.272858
0.274139
0.272858
0.275420
0.275420
0.272858
0.272858
0.275420
0.274139
0.272858
0.272858
0.272858
0.272858
0.279263
0.274139
0.272858
0.274139
0.272858
0.274139
0.274139
0.274139
0.274139
0.279263
0.277982
0.272858
0.275420
0.275420
0.275420
0.272858
0.274139
0.274139
0.274139
0.279263
0.275420
0.275420
0.274139
0.279263
0.274139
0.275420
0.275420
0.274139
0.274139
0.274139
0.272858
0.274139
0.274139
0.274139
0.272858
0.274139
0.272858
0.272858
0.275420
0.272858
0.272858
0.274139
0.277982
0.276701
0.274139
0.275420
0.274139
0.276701
0.272858
0.274139
0.275420
0.274139
0.275420
0.277982
0.274139
0.274139
0.276701
0.274139
0.274139
0.274139
0.274139
0.274139
0.274139
0.274139
0.274139
0.275420
0.274139
0.277982
0.275420
0.275420
0.274139
0.279263
0.274139
0.274139
0.275420
0.275420
0.274139
0.275420
0.275420
0.274139
0.274139
0.275420
0.275420
0.274139
0.275420
0.274139
0.274139
0.275420
0.275420
0.276701
0.275420
0.274139
0.274139
0.280544
0.274139
0.275420
0.275420
0.274139
0.274139
0.275420
0.275420
0.275420
0.275420
0.276701
0.274139
0.275420
0.276701
0.274139
0.276701
0.279263
0.279263
0.276701
0.275420
0.275420
0.275420
0.274139
0.274139
0.276701
0.276701
0.275420
0.275420
0.277982
0.276701
0.276701
0.275420
0.276701
0.276701
0.279263
0.274139
0.276701
0.276701
0.276701
0.275420
0.276701
0.275420
0.274139
0.276701
0.275420
0.276701
0.275420
0.275420
0.275420
0.279263
0.276701
0.276701
0.275420
0.275420
0.275420
0.276701
0.275420
0.276701
0.275420
0.279263
0.275420
0.279263
0.277982
0.280544
0.276701
0.275420
0.279263
0.275420
0.276701
0.274139
0.276701
0.275420
0.275420
0.276701
0.275420
0.275420
0.276701
0.274139
0.275420
0.275420
0.280544
0.274139
0.275420
0.275420
0.280544
0.274139
0.275420
0.275420
0.275420
0.274139
0.275420
0.279263
0.274139
0.276701
0.276701
0.274139
0.275420
0.274139
0.274139
0.279263
0.274139
0.275420
0.275420
0.274139
0.274139
0.275420
0.275420
0.275420
0.276701
0.275420
0.279263
0.275420
0.275420
0.275420
0.280544
0.276701
0.275420
0.276701
0.275420
0.276701
0.276701
0.281825
0.275420
0.275420
0.275420
0.277982
0.275420
0.275420
0.276701
0.275420
0.275420
0.277982
0.276701
0.275420
0.275420
0.275420
0.275420
0.276701
0.275420
0.276701
0.276701
0.279263
0.275420
0.276701
0.275420
0.275420
0.276701
0.275420
0.275420
0.277982
0.276701
0.276701
0.276701
0.275420
0.275420
0.275420
0.275420
0.275420
0.275420
0.276701
0.275420
0.277982
0.275420
0.275420
0.276701
0.275420
0.275420
0.275420
0.276701
0.274139
0.276701
0.276701
0.276701
0.276701
0.281825
0.276701
0.276701
0.275420
0.275420
0.275420
0.281825
0.277982
0.276701
0.277982
0.275420
0.276701
0.275420
0.276701
0.276701
0.277982
0.275420
0.275420
0.277982
0.276701
0.280544
0.276701
0.276701
0.276701
0.277982
0.276701
0.277982
0.277982
0.277982
0.277982
0.276701
0.279263
0.277982
0.276701
0.277982
0.276701
0.276701
0.277982
0.277982
0.275420
0.277982
0.276701
0.277982
0.279263
0.277982
0.276701
0.276701
0.276701
0.276701
0.277982
0.276701
0.276701
0.277982
0.277982
0.276701
0.281825
0.277982
0.276701
0.276701
0.277982
0.275420
0.275420
0.275420
0.274139
0.277982
0.277982
0.275420
0.276701
0.281825
0.276701
0.277982
0.277982
0.276701
0.276701
0.276701
0.279263
0.277982
0.276701
0.277982
0.276701
0.276701
0.277982
0.277982
0.276701
0.276701
0.277982
0.283106
0.276701
0.275420
0.277982
0.277982
0.275420
0.281825
0.276701
0.276701
0.277982
0.277982
0.279263
0.277982
0.276701
0.280544
0.276701
0.276701
0.276701
0.277982
0.276701
0.276701
0.276701
0.277982
0.279263
0.277982
0.277982
0.276701
0.281825
0.279263
0.279263
0.279263
0.276701
0.283106
0.279263
0.276701
0.279263
0.279263
0.277982
0.279263
0.277982
0.277982
0.277982
0.276701
0.279263
0.279263
0.277982
0.281825
0.277982
0.277982
0.277982
0.279263
0.277982
0.284387
0.279263
0.277982
0.279263
0.279263
0.277982
0.279263
0.276701
0.277982
0.277982
0.279263
0.277982
0.279263
0.277982
0.279263
0.276701
0.277982
0.277982
0.279263
0.277982
0.277982
0.281825
0.277982
0.276701
0.279263
0.279263
0.279263
0.277982
0.277982
0.283106
0.277982
0.279263
0.284387
0.277982
0.277982
0.277982
0.279263
0.279263
0.277982
0.277982
0.281825
0.279263
0.283106
0.279263
0.279263
0.277982
0.277982
0.279263
0.277982
0.279263
0.279263
0.276701
0.279263
0.281825
0.281825
0.279263
0.279263
0.277982
0.279263
0.277982
0.277982
0.277982
0.276701
0.277982
0.279263
0.277982
0.276701
0.277982
0.277982
0.280544
0.279263
0.279263
0.277982
0.277982
0.279263
0.280544
0.279263
0.277982
0.279263
0.283106
0.284387
0.280544
0.279263
0.279263
0.279263
0.279263
0.277982
0.279263
0.279263
0.279263
0.284387
0.284387
0.277982
0.277982
0.279263
0.277982
0.277982
0.279263
0.279263
0.277982
0.284387
0.279263
0.280544
0.279263
0.279263
0.279263
0.277982
0.277982
0.279263
0.279263
0.277982
0.279263
0.277982
0.280544
0.279263
0.279263
0.279263
0.279263
0.279263
0.277982
0.280544
0.279263
0.283106
0.280544
0.280544
0.279263
0.283106
0.279263
0.280544
0.277982
0.280544
0.279263
0.279263
0.280544
0.280544
0.280544
0.280544
0.280544
0.279263
0.279263
0.284387
0.279263
0.281825
0.279263
0.279263
0.279263
0.280544
0.285668
0.280544
0.280544
0.280544
0.279263
0.280544
0.279263
0.280544
0.279263
0.280544
0.281825
0.279263
0.280544
0.279263
0.281825
0.280544
0.281825
0.281825
0.280544
0.280544
0.280544
0.283106
0.280544
0.281825
0.281825
0.280544
0.280544
0.280544
0.281825
0.281825
0.280544
0.281825
0.285668
0.279263
0.279263
0.281825
0.280544
0.280544
0.280544
0.280544
0.280544
0.281825
0.281825
0.281825
0.281825
0.284387
0.280544
0.280544
0.285668
0.281825
0.280544
0.281825
0.280544
0.281825
0.281825
0.285668
0.281825
0.281825
0.281825
0.279263
0.280544
0.279263
0.281825
0.281825
0.281825
0.280544
0.280544
0.280544
0.280544
0.280544
0.281825
0.281825
0.281825
0.281825
0.280544
0.280544
0.281825
0.280544
0.280544
0.280544
0.280544
0.281825
0.280544
0.285668
0.280544
0.281825
0.279263
0.281825
0.280544
0.280544
0.283106
0.281825
0.281825
0.281825
0.281825
0.281825
0.283106
0.283106
0.283106
0.281825
0.283106
0.280544
0.280544
0.281825
0.281825
0.281825
0.281825
0.280544
0.280544
0.281825
0.283106
0.281825
0.281825
0.280544
0.281825
0.280544
0.283106
0.280544
0.281825
0.279263
0.281825
0.280544
0.285668
0.281825
0.280544
0.281825
0.281825
0.280544
0.280544
0.280544
0.283106
0.283106
0.281825
0.281825
0.280544
0.284387
0.280544
0.281825
0.281825
0.281825
0.281825
0.280544
0.280544
0.279263
0.281825
0.283106
0.280544
0.279263
0.281825
0.280544
0.279263
0.280544
0.280544
0.280544
0.279263
0.280544
0.279263
0.279263
0.284387
0.280544
0.280544
0.280544
0.279263
0.280544
0.280544
0.279263
0.280544
0.280544
0.280544
0.280544
0.284387
0.279263
0.280544
0.281825
0.280544
0.280544
0.280544
0.279263
0.280544
0.279263
0.280544
0.281825
0.281825
0.279263
0.285668
0.280544
0.281825
0.281825
0.281825
0.279263
0.277982
0.284387
0.279263
0.279263
0.279263
0.280544
0.281825
0.281825
0.280544
0.279263
0.279263
0.279263
0.279263
0.280544
0.279263
0.285668
0.279263
0.279263
0.280544
0.279263
0.281825
0.280544
0.280544
0.280544
0.283106
0.284387
0.283106
0.280544
0.281825
0.281825
0.281825
0.281825
0.280544
0.280544
0.280544
0.283106
0.284387
0.284387
0.284387
0.284387
0.284387
0.283106
0.283106
0.284387
0.284387
0.283106
0.284387
0.284387
0.288230
0.285668
0.290792
0.284387
0.283106
0.284387
0.284387
0.281825
0.283106
0.283106
0.284387
0.284387
0.283106
0.283106
0.284387
0.283106
0.283106
0.283106
0.284387
0.283106
0.283106
0.283106
0.284387
0.281825
0.281825
0.283106
0.283106
0.283106
0.281825
0.280544
0.283106
0.281825
0.283106
0.281825
0.284387
0.283106
0.284387
0.283106
0.281825
0.283106
0.283106
0.283106
0.284387
0.284387
0.284387
0.284387
0.283106
0.284387
0.283106
0.284387
0.284387
0.284387
0.281825
0.283106
0.283106
0.283106
0.281825
0.288230
0.285668
0.284387
0.281825
0.284387
0.284387
0.284387
0.288230
0.285668
0.285668
0.284387
0.281825
0.289511
0.284387
0.284387
0.285668
0.285668
0.283106
0.281825
0.284387
0.284387
0.283106
0.288230
0.286949
0.284387
0.283106
0.283106
0.289511
0.283106
0.283106
0.288230
0.280544
0.283106
0.284387
0.284387
0.283106
0.286949
0.283106
0.284387
0.283106
0.283106
0.284387
0.288230
0.284387
0.283106
0.285668
0.284387
0.284387
0.285668
0.284387
0.285668
0.288230
0.284387
0.285668
0.285668
0.285668
0.285668
0.284387
0.288230
0.286949
0.283106
0.284387
0.285668
0.284387
0.285668
0.285668
0.286949
0.286949
0.285668
0.285668
0.284387
0.284387
0.285668
0.285668
0.285668
0.284387
0.284387
0.284387
0.284387
0.285668
0.288230
0.285668
0.284387
0.286949
0.288230
0.284387
0.284387
0.284387
0.285668
0.289511
0.284387
0.284387
0.284387
0.285668
0.284387
0.283106
0.285668
0.284387
0.284387
0.285668
0.285668
0.283106
0.283106
0.285668
0.284387
0.284387
0.285668
0.284387
0.289511
0.288230
0.284387
0.285668
0.288230
0.285668
0.285668
0.285668
0.285668
0.284387
0.290792
0.284387
0.285668
0.285668
0.285668
0.284387
0.284387
0.285668
0.285668
0.284387
0.289511
0.285668
0.284387
0.288230
0.286949
0.286949
0.286949
0.285668
0.284387
0.285668
0.285668
0.285668
0.285668
0.285668
0.284387
0.288230
0.285668
0.286949
0.285668
0.285668
0.286949
0.284387
0.285668
0.285668
0.285668
0.286949
0.284387
0.286949
0.286949
0.286949
0.285668
0.285668
0.289511
0.285668
0.288230
0.286949
0.286949
0.285668
0.286949
0.285668
0.284387
0.286949
0.286949
0.284387
0.284387
0.285668
0.285668
0.286949
0.286949
0.286949
0.286949
0.285668
0.286949
0.285668
0.285668
0.292073
0.286949
0.286949
0.286949
0.286949
0.286949
0.285668
0.285668
0.286949
0.286949
0.285668
0.286949
0.286949
0.286949
0.290792
0.285668
0.289511
0.285668
0.286949
0.288230
0.286949
0.286949
0.285668
0.286949
0.288230
0.286949
0.286949
0.288230
0.285668
0.285668
0.285668
0.285668
0.285668
0.286949
0.286949
0.286949
0.286949
0.285668
0.286949
0.285668
0.288230
0.288230
0.286949
0.286949
0.286949
0.290792
0.286949
0.293354
0.288230
0.288230
0.288230
0.286949
0.286949
0.285668
0.286949
0.286949
0.285668
0.290792
0.286949
0.285668
0.288230
0.292073
0.285668
0.286949
0.285668
0.286949
0.288230
0.286949
0.285668
0.286949
0.288230
0.288230
0.286949
0.285668
0.286949
0.288230
0.292073
0.286949
0.288230
0.288230
0.286949
0.293354
0.288230
0.292073
0.286949
0.288230
0.288230
0.286949
0.285668
0.292073
0.288230
0.286949
0.288230
0.289511
0.286949
0.288230
0.286949
0.286949
0.286949
0.286949
0.292073
0.286949
0.288230
0.285668
0.286949
0.285668
0.286949
0.285668
0.289511
0.286949
0.286949
0.285668
0.288230
0.286949
0.286949
0.289511
0.288230
0.286949
0.288230
0.288230
0.289511
0.286949
0.286949
0.286949
0.289511
0.288230
0.288230
0.288230
0.286949
0.286949
0.286949
0.286949
0.286949
0.288230
0.288230
0.286949
0.286949
0.292073
0.288230
0.288230
0.288230
0.288230
0.286949
0.286949
0.288230
0.288230
0.288230
0.288230
0.289511
0.288230
0.288230
0.288230
0.288230
0.288230
0.289511
0.289511
0.288230
0.289511
0.293354
0.289511
0.288230
0.288230
0.290792
0.289511
0.286949
0.288230
0.288230
0.286949
0.286949
0.286949
0.290792
0.285668
0.288230
0.288230
0.288230
0.286949
0.286949
0.286949
0.288230
0.289511
0.288230
0.288230
0.288230
0.286949
0.288230
0.286949
0.288230
0.288230
0.288230
0.289511
0.289511
0.292073
0.290792
0.288230
0.289511
0.289511
0.288230
0.286949
0.293354
0.288230
0.288230
0.290792
0.289511
0.289511
0.286949
0.289511
0.288230
0.288230
0.289511
0.295916
0.289511
0.289511
0.293354
0.289511
0.290792
0.289511
0.289511
0.294635
0.288230
0.289511
0.290792
0.294635
0.290792
0.289511
0.289511
0.292073
0.290792
0.288230
0.289511
0.289511
0.293354
0.288230
0.288230
0.290792
0.290792
0.289511
0.294635
0.290792
0.293354
0.289511
0.288230
0.289511
0.290792
0.290792
0.286949
0.294635
0.288230
0.289511
0.288230
0.289511
0.289511
0.289511
0.288230
0.288230
0.288230
0.288230
0.289511
0.289511
0.288230
0.290792
0.289511
0.289511
0.293354
0.289511
0.292073
0.288230
0.290792
0.290792
0.289511
0.290792
0.289511
0.290792
0.292073
0.290792
0.289511
0.290792
0.290792
0.289511
0.289511
0.289511
0.292073
0.289511
0.289511
0.290792
0.288230
0.293354
0.288230
0.294635
0.289511
0.288230
0.288230
0.294635
0.289511
0.289511
0.290792
0.289511
0.289511
0.294635
0.289511
0.289511
0.290792
0.295916
0.292073
0.290792
0.290792
0.289511
0.290792
0.289511
0.292073
0.290792
0.290792
0.289511
0.292073
0.295916
0.289511
0.288230
0.289511
0.290792
0.293354
0.290792
0.294635
0.290792
0.292073
0.292073
0.292073
0.290792
0.292073
0.290792
0.294635
0.289511
0.292073
0.290792
0.290792
0.292073
0.290792
0.292073
0.290792
0.289511
0.289511
0.290792
0.289511
0.292073
0.295916
0.290792
0.290792
0.290792
0.292073
0.293354
0.292073
0.292073
0.292073
0.290792
0.297197
0.292073
0.290792
0.290792
0.292073
0.292073
0.292073
0.292073
0.290792
0.290792
0.290792
0.290792
0.290792
0.292073
0.292073
0.290792
0.290792
0.290792
0.290792
0.290792
0.290792
0.290792
0.289511
0.292073
0.290792
0.294635
0.290792
0.292073
0.290792
0.290792
0.292073
0.292073
0.290792
0.292073
0.290792
0.290792
0.290792
0.290792
0.293354
0.292073
0.292073
0.290792
0.292073
0.290792
0.290792
0.292073
0.293354
0.292073
0.289511
0.292073
0.290792
0.297197
0.290792
0.290792
0.290792
0.292073
0.292073
0.292073
0.292073
0.293354
0.293354
0.290792
0.290792
0.290792
0.293354
0.290792
0.290792
0.292073
0.290792
0.290792
0.292073
0.292073
0.292073
0.292073
0.292073
0.292073
0.295916
0.292073
0.290792
0.292073
0.293354
0.293354
0.293354
0.293354
0.290792
0.293354
0.293354
0.297197
0.293354
0.293354
0.293354
0.292073
0.290792
0.298478
0.292073
0.295916
0.292073
0.293354
0.292073
0.293354
0.292073
0.292073
0.292073
0.292073
0.293354
0.297197
0.293354
0.293354
0.293354
0.293354
0.294635
0.293354
0.292073
0.293354
0.292073
0.294635
0.294635
0.294635
0.293354
0.292073
0.293354
0.292073
0.294635
0.293354
0.292073
0.292073
0.293354
0.292073
0.292073
0.293354
0.293354
0.292073
0.292073
0.292073
0.292073
0.292073
0.293354
0.294635
0.299759
0.294635
0.294635
0.293354
0.293354
0.293354
0.293354
0.293354
0.294635
0.293354
0.294635
0.293354
0.294635
0.293354
0.293354
0.298478
0.293354
0.294635
0.292073
0.294635
0.293354
0.294635
0.294635
0.293354
0.294635
0.294635
0.294635
0.294635
0.298478
0.294635
0.294635
0.295916
0.295916
0.294635
0.293354
0.294635
0.293354
0.294635
0.297197
0.295916
0.294635
0.299759
0.294635
0.295916
0.294635
0.295916
0.295916
0.298478
0.293354
0.294635
0.293354
0.293354
0.293354
0.294635
0.294635
0.294635
0.294635
0.294635
0.293354
0.294635
0.298478
0.293354
0.294635
0.294635
0.299759
0.295916
0.294635
0.294635
0.294635
0.294635
0.293354
0.293354
0.295916
0.294635
0.294635
0.293354
0.294635
0.294635
0.297197
0.295916
0.295916
0.294635
0.294635
0.294635
0.294635
0.294635
0.295916
0.294635
0.295916
0.295916
0.294635
0.294635
0.294635
0.294635
0.299759
0.295916
0.297197
0.295916
0.301040
0.295916
0.294635
0.294635
0.295916
0.295916
0.294635
0.297197
0.294635
0.297197
0.295916
0.297197
0.295916
0.297197
0.297197
0.295916
0.294635
0.294635
0.294635
0.299759
0.294635
0.297197
0.297197
0.297197
0.294635
0.294635
0.302321
0.295916
0.295916
0.299759
0.297197
0.297197
0.297197
0.297197
0.297197
0.295916
0.295916
0.295916
0.295916
0.297197
0.295916
0.295916
0.297197
0.294635
0.297197
0.295916
0.297197
0.297197
0.295916
0.295916
0.297197
0.295916
0.295916
0.295916
0.297197
0.297197
0.295916
0.294635
0.297197
0.295916
0.295916
0.295916
0.301040
0.297197
0.295916
0.295916
0.297197
0.294635
0.295916
0.297197
0.298478
0.295916
0.295916
0.297197
0.302321
0.295916
0.295916
0.297197
0.297197
0.297197
0.295916
0.297197
0.295916
0.295916
0.299759
0.295916
0.295916
0.295916
0.297197
0.295916
0.294635
0.294635
0.295916
0.295916
0.297197
0.297197
0.297197
0.297197
0.293354
0.293354
0.293354
0.293354
0.294635
0.295916
0.293354
0.295916
0.293354
0.293354
0.294635
0.297197
0.295916
0.295916
0.294635
0.293354
0.294635
0.294635
0.294635
0.295916
0.294635
0.297197
0.294635
0.294635
0.295916
0.294635
0.294635
0.293354
0.294635
0.293354
0.299759
0.294635
0.295916
0.293354
0.295916
0.293354
0.297197
0.294635
0.294635
0.294635
0.294635
0.293354
0.290792
0.293354
0.293354
0.294635
0.293354
0.294635
0.292073
0.294635
0.293354
0.295916
0.294635
0.293354
0.294635
0.294635
0.297197
0.294635
0.293354
0.293354
0.295916
0.295916
0.294635
0.295916
0.295916
0.295916
0.293354
0.295916
0.294635
0.294635
0.294635
0.294635
0.299759
0.293354
0.293354
0.294635
0.294635
0.299759
0.295916
0.293354
0.294635
0.295916
0.294635
0.294635
0.295916
0.295916
0.294635
0.298478
0.294635
0.295916
0.297197
0.298478
0.294635
0.299759
0.293354
0.293354
0.293354
0.293354
0.294635
0.294635
0.295916
0.294635
0.294635
0.295916
0.293354
0.295916
0.294635
0.295916
0.293354
0.295916
0.293354
0.294635
0.293354
0.293354
0.294635
0.294635
0.293354
0.294635
0.294635
0.294635
0.293354
0.293354
0.294635
0.293354
0.294635
0.294635
0.293354
0.293354
0.298478
0.293354
0.293354
0.293354
0.294635
0.294635
0.293354
0.293354
0.294635
0.294635
0.294635
0.298478
0.298478
0.295916
0.294635
0.294635
0.295916
0.293354
0.298478
0.294635
0.299759
0.294635
0.294635
0.295916
0.294635
0.294635
0.294635
0.295916
0.294635
0.295916
0.295916
0.295916
0.294635
0.299759
0.294635
0.298478
0.295916
0.295916
0.297197
0.295916
0.295916
0.294635
0.294635
0.298478
0.302321
0.295916
0.294635
0.295916
0.295916
0.299759
0.295916
0.295916
0.297197
0.297197
0.294635
0.294635
0.297197
0.295916
0.295916
0.295916
0.297197
0.298478
0.294635
0.295916
0.295916
0.293354
0.294635
0.294635
0.295916
0.295916
0.297197
0.297197
0.294635
0.295916
0.295916
0.299759
0.297197
0.294635
0.297197
0.295916
0.295916
0.295916
0.295916
0.294635
0.294635
0.295916
0.294635
0.295916
0.297197
0.297197
0.295916
0.295916
0.295916
0.297197
0.295916
0.295916
0.295916
0.297197
0.295916
0.297197
0.301040
0.295916
0.295916
0.295916
0.297197
0.295916
0.294635
0.294635
0.302321
0.295916
0.297197
0.298478
0.297197
0.298478
0.301040
0.299759
0.299759
0.297197
0.299759
0.298478
0.298478
0.299759
0.301040
0.303602
0.299759
0.298478
0.299759
0.301040
0.298478
0.298478
0.303602
0.299759
0.299759
0.299759
0.298478
0.299759
0.304883
0.299759
0.298478
0.298478
0.298478
0.298478
0.297197
0.299759
0.297197
0.298478
0.298478
0.298478
0.299759
0.299759
0.301040
0.299759
0.299759
0.297197
0.298478
0.298478
0.298478
0.298478
0.298478
0.301040
0.299759
0.299759
0.299759
0.299759
0.298478
0.298478
0.298478
0.306164
0.299759
0.299759
0.299759
0.299759
0.303602
0.298478
0.302321
0.299759
0.299759
0.299759
0.298478
0.299759
0.299759
0.299759
0.298478
0.298478
0.299759
0.299759
0.298478
0.301040
0.301040
0.302321
0.301040
0.301040
0.302321
0.303602
0.307445
0.306164
0.303602
0.302321
0.303602
0.301040
0.301040
0.301040
0.303602
0.306164
0.302321
0.302321
0.302321
0.301040
0.302321
0.303602
0.308726
0.301040
0.303602
0.302321
0.307445
0.302321
0.302321
0.302321
0.302321
0.302321
0.303602
0.304883
0.303602
0.307445
0.301040
0.302321
0.302321
0.301040
0.302321
0.301040
0.301040
0.299759
0.302321
0.302321
0.301040
0.301040
0.302321
0.304883
0.301040
0.302321
0.302321
0.301040
0.301040
0.301040
0.299759
0.301040
0.302321
0.301040
0.302321
0.302321
0.301040
0.301040
0.301040
0.306164
0.301040
0.301040
0.302321
0.302321
0.302321
0.301040
0.301040
0.301040
0.301040
0.301040
0.301040
0.303602
0.303602
0.302321
0.299759
0.307445
0.301040
0.301040
0.301040
0.301040
0.301040
0.302321
0.302321
0.302321
0.301040
0.301040
0.302321
0.301040
0.301040
0.304883
0.304883
0.301040
0.301040
0.302321
0.299759
0.301040
0.301040
0.302321
0.301040
0.298478
0.299759
0.307445
0.310007
0.317694
0.324099
0.324099
0.327942
0.321537
0.322818
0.320256
0.320256
0.320256
0.320256
0.318975
0.321537
0.321537
0.320256
0.325380
0.318975
0.322818
0.318975
0.315132
0.308726
0.313851
0.310007
0.310007
0.308726
0.312569
0.310007
0.310007
0.310007
0.311288
0.310007
0.310007
0.310007
0.308726
0.312569
0.313851
0.310007
0.310007
0.310007
0.308726
0.310007
0.310007
0.311288
0.308726
0.310007
0.308726
0.308726
0.310007
0.310007
0.310007
0.310007
0.308726
0.307445
0.307445
0.307445
0.312569
0.307445
0.308726
0.307445
0.310007
0.308726
0.311288
0.308726
0.304883
0.304883
0.304883
0.304883
0.306164
0.299759
0.301040
0.301040
0.298478
0.299759
0.298478
0.298478
0.301040
0.299759
0.299759
0.298478
0.298478
0.298478
0.298478
0.299759
0.301040
0.299759
0.301040
0.299759
0.299759
0.298478
0.303602
0.301040
0.301040
0.298478
0.299759
0.299759
0.297197
0.298478
0.297197
0.295916
0.297197
0.298478
0.299759
0.302321
0.301040
0.301040
0.304883
0.301040
0.299759
0.299759
0.298478
0.298478
0.298478
0.298478
0.295916
0.297197
0.298478
0.298478
0.298478
0.297197
0.294635
0.294635
0.295916
0.295916
0.302321
0.295916
0.301040
0.297197
0.302321
0.301040
0.299759
0.299759
0.304883
0.298478
0.298478
0.297197
0.299759
0.299759
0.295916
0.298478
0.297197
0.297197
0.297197
0.297197
0.297197
0.297197
0.295916
0.297197
0.298478
0.295916
0.298478
0.295916
0.297197
0.299759
0.304883
0.334347
0.349719
0.344595
0.334347
0.413770
0.499599
0.426581
0.357405
0.339471
0.335628
0.351000
0.357405
0.535467
0.555964
0.481664
0.431705
0.412489
0.404803
0.402241
0.386869
0.381745
0.365091
0.353562
0.349719
0.348438
0.343314
0.339471
0.338190
0.339471
0.334347
0.333066
0.331785
0.333066
0.330504
0.330504
0.327942
0.329223
0.326661
0.327942
0.327942
0.325380
0.325380
0.327942
0.325380
0.322818
0.324099
0.322818
0.327942
0.321537
0.322818
0.322818
0.344595
0.329223
0.325380
0.340752
0.376621
0.335628
0.326661
0.321537
0.322818
0.324099
0.321537
0.320256
0.320256
0.321537
0.320256
0.317694
0.321537
0.317694
0.321537
0.317694
0.316413
0.320256
0.322818
0.318975
0.317694
0.320256
0.317694
0.318975
0.316413
0.321537
0.317694
0.320256
0.318975
0.313851
0.318975
0.320256
0.318975
0.316413
0.316413
0.316413
0.318975
0.317694
0.317694
0.317694
0.317694
0.315132
0.313851
0.317694
0.316413
0.317694
0.316413
0.316413
0.316413
0.316413
0.316413
0.313851
0.313851
0.317694
0.313851
0.312569
0.313851
0.316413
0.315132
0.312569
0.313851
0.315132
0.315132
0.313851
0.313851
0.318975
0.317694
0.313851
0.316413
0.313851
0.313851
0.315132
0.313851
0.311288
0.312569
0.313851
0.312569
0.312569
0.313851
0.315132
0.313851
0.312569
0.313851
0.315132
0.313851
0.312569
0.311288
0.315132
0.312569
0.312569
0.312569
0.311288
0.311288
0.312569
0.312569
0.311288
0.313851
0.312569
0.317694
0.310007
0.318975
0.311288
0.312569
0.311288
0.310007
0.312569
0.311288
0.312569
0.310007
0.312569
0.311288
0.311288
0.310007
0.313851
0.312569
0.311288
0.310007
0.312569
0.321537
0.316413
0.317694
0.315132
0.318975
0.357405
0.416332
0.452201
0.445796
0.436829
0.427862
0.402241
0.348438
0.330504
0.321537
0.321537
0.317694
0.322818
0.342033
0.330504
0.325380
0.320256
0.317694
0.313851
0.315132
0.313851
0.315132
0.312569
0.315132
0.313851
0.313851
0.313851
0.313851
0.312569
0.312569
0.311288
0.312569
0.312569
0.311288
0.312569
0.312569
0.311288
0.312569
0.310007
0.310007
0.311288
0.311288
0.311288
0.311288
0.312569
0.311288
0.311288
0.310007
0.311288
0.308726
0.311288
0.310007
0.308726
0.310007
0.312569
0.313851
0.307445
0.313851
0.310007
0.311288
0.311288
0.310007
0.310007
0.311288
0.308726
0.313851
0.310007
0.308726
0.308726
0.307445
0.310007
0.310007
0.310007
0.308726
0.306164
0.315132
0.307445
0.308726
0.308726
0.308726
0.308726
0.315132
0.308726
0.306164
0.308726
0.307445
0.313851
0.307445
0.306164
0.307445
0.307445
0.310007
0.304883
0.308726
0.306164
0.307445
0.307445
0.304883
0.308726
0.307445
0.307445
0.304883
0.306164
0.312569
0.306164
0.306164
0.306164
0.307445
0.306164
0.310007
0.304883
0.311288
0.307445
0.306164
0.306164
0.306164
0.306164
0.303602
0.308726
0.304883
0.307445
0.302321
0.304883
0.304883
0.304883
0.306164
0.304883
0.304883
0.303602
0.306164
0.304883
0.306164
0.303602
0.304883
0.304883
0.306164
0.303602
0.313851
0.320256
0.313851
0.306164
0.308726
0.343314
0.409927
0.336909
0.315132
0.307445
0.307445
0.304883
0.306164
0.304883
0.303602
0.304883
0.306164
0.308726
0.349719
0.368935
0.371497
0.389431
0.406084
0.422737
0.413770
0.391993
0.343314
0.324099
0.317694
0.313851
0.310007
0.311288
0.308726
0.311288
0.307445
0.306164
0.308726
0.308726
0.306164
0.304883
0.311288
0.310007
0.303602
0.310007
0.306164
0.304883
0.304883
0.306164
0.307445
0.303602
0.307445
0.306164
0.312569
0.304883
0.304883
0.303602
0.306164
0.306164
0.303602
0.303602
0.306164
0.311288
0.303602
0.303602
0.304883
0.308726
0.303602
0.303602
0.306164
0.306164
0.303602
0.306164
0.303602
0.306164
0.304883
0.306164
0.303602
0.306164
0.306164
0.304883
0.302321
0.303602
0.303602
0.304883
0.304883
0.302321
0.307445
0.303602
0.302321
0.302321
0.302321
0.303602
0.304883
0.302321
0.304883
0.299759
0.302321
0.302321
0.304883
0.301040
0.311288
0.310007
0.308726
0.306164
0.303602
0.307445
0.302321
0.302321
0.299759
0.302321
0.303602
0.306164
0.303602
0.304883
0.304883
0.302321
0.304883
0.303602
0.302321
0.302321
0.302321
0.301040
0.299759
0.302321
0.302321
0.301040
0.301040
0.301040
0.306164
0.302321
0.299759
0.301040
0.306164
0.302321
0.302321
0.306164
0.301040
0.301040
0.302321
0.299759
0.302321
0.302321
0.303602
0.303602
0.301040
0.306164
0.304883
0.303602
0.302321
0.298478
0.301040
0.298478
0.301040
0.301040
0.299759
0.299759
0.303602
0.301040
0.302321
0.301040
0.299759
0.302321
0.301040
0.301040
0.302321
0.310007
0.303602
0.302321
0.302321
0.303602
0.299759
0.299759
0.306164
0.301040
0.299759
0.302321
0.299759
0.303602
0.301040
0.304883
0.299759
0.298478
0.306164
0.298478
0.297197
0.297197
0.298478
0.299759
0.298478
0.299759
0.298478
0.298478
0.299759
0.303602
0.299759
0.298478
0.299759
0.301040
0.299759
0.297197
0.298478
0.298478
0.299759
0.299759
0.298478
0.299759
0.299759
0.299759
0.299759
0.298478
0.301040
0.301040
0.301040
0.298478
0.354843
0.371497
0.356124
0.312569
0.304883
0.308726
0.302321
0.307445
0.302321
0.298478
0.306164
0.303602
0.302321
0.299759
0.302321
0.302321
0.302321
0.299759
0.302321
0.301040
0.301040
0.299759
0.301040
0.301040
0.306164
0.299759
0.299759
0.303602
0.298478
0.302321
0.301040
0.298478
0.308726
0.301040
0.306164
0.299759
0.302321
0.302321
0.301040
0.299759
0.297197
0.301040
0.299759
0.304883
0.302321
0.321537
0.335628
0.334347
0.339471
0.351000
0.349719
0.320256
0.308726
0.306164
0.307445
0.306164
0.303602
0.303602
0.307445
0.301040
0.301040
0.303602
0.304883
0.299759
0.302321
0.304883
0.303602
0.301040
0.301040
0.303602
0.301040
0.303602
0.301040
0.299759
0.299759
0.301040
0.299759
0.301040
0.302321
0.302321
0.302321
0.299759
0.302321
0.301040
0.301040
0.299759
0.302321
0.301040
0.302321
0.299759
0.299759
0.301040
0.299759
0.302321
0.301040
0.299759
0.302321
0.302321
0.301040
0.299759
0.301040
0.299759
0.302321
0.299759
0.304883
0.301040
0.301040
0.299759
0.298478
0.304883
0.299759
0.298478
0.299759
0.298478
0.304883
0.301040
0.298478
0.298478
0.301040
0.299759
0.299759
0.297197
0.298478
0.298478
0.299759
0.299759
0.301040
0.299759
0.301040
0.301040
0.299759
0.299759
0.299759
0.299759
0.301040
0.299759
0.302321
0.301040
0.301040
0.303602
0.298478
0.299759
0.299759
0.302321
0.301040
0.297197
0.299759
0.298478
0.299759
0.297197
0.302321
0.298478
0.298478
0.299759
0.298478
0.301040
0.299759
0.299759
0.298478
0.301040
0.299759
0.301040
0.299759
0.298478
0.299759
0.299759
0.303602
0.298478
0.297197
0.298478
0.298478
0.297197
0.297197
0.299759
0.298478
0.299759
0.298478
0.297197
0.302321
0.297197
0.298478
0.299759
0.297197
0.302321
0.301040
0.302321
0.297197
0.298478
0.299759
0.299759
0.298478
0.297197
0.299759
0.297197
0.297197
0.299759
0.297197
0.298478
0.301040
0.298478
0.297197
0.298478
0.298478
0.302321
0.295916
0.298478
0.299759
0.298478
0.299759
0.297197
0.298478
0.302321
0.299759
0.298478
0.298478
0.298478
0.299759
0.298478
0.297197
0.298478
0.298478
0.299759
0.298478
0.298478
0.297197
0.298478
0.303602
0.298478
0.297197
0.298478
0.311288
0.326661
0.354843
0.391993
0.384307
0.375340
0.367653
0.354843
0.326661
0.318975
0.307445
0.302321
0.301040
0.302321
0.302321
0.303602
0.299759
0.301040
0.301040
0.301040
0.301040
0.299759
0.299759
0.301040
0.298478
0.301040
0.301040
0.301040
0.302321
0.301040
0.311288
0.368935
0.356124
0.304883
0.306164
0.303602
0.303602
0.301040
0.308726
0.301040
0.306164
0.301040
0.301040
0.301040
0.301040
0.301040
0.299759
0.304883
0.302321
0.299759
0.302321
0.299759
0.298478
0.299759
0.301040
0.301040
0.299759
0.298478
0.301040
0.301040
0.301040
0.299759
0.303602
0.298478
0.301040
0.301040
0.298478
0.301040
0.299759
0.298478
0.298478
0.299759
0.302321
0.299759
0.299759
0.301040
0.299759
0.299759
0.302321
0.318975
0.307445
0.302321
0.306164
0.324099
0.374059
0.384307
0.331785
0.317694
0.312569
0.310007
0.307445
0.306164
0.307445
0.306164
0.304883
0.310007
0.304883
0.306164
0.303602
0.302321
0.301040
0.306164
0.301040
0.302321
0.303602
0.301040
0.299759
0.299759
0.298478
0.299759
0.298478
0.299759
0.301040
0.298478
0.302321
0.298478
0.302321
0.295916
0.298478
0.299759
0.298478
0.297197
0.298478
0.301040
0.297197
0.298478
0.298478
0.295916
0.297197
0.299759
0.298478
0.298478
0.298478
0.299759
0.298478
0.297197
0.301040
0.297197
0.297197
0.297197
0.297197
0.301040
0.297197
0.297197
0.298478
0.297197
0.297197
0.297197
0.298478
0.298478
0.298478
0.295916
0.295916
0.298478
0.298478
0.297197
0.297197
0.295916
0.302321
0.297197
0.299759
0.297197
0.298478
0.298478
0.297197
0.298478
0.295916
0.297197
0.297197
0.298478
0.299759
0.301040
0.298478
0.297197
0.298478
0.297197
0.297197
0.297197
0.297197
0.299759
0.297197
0.295916
0.295916
0.294635
0.294635
0.295916
0.298478
0.298478
0.297197
0.297197
0.297197
0.301040
0.295916
0.299759
0.301040
0.294635
0.298478
0.297197
0.295916
0.298478
0.295916
0.298478
0.298478
0.298478
0.298478
0.297197
0.294635
0.294635
0.298478
0.295916
0.298478
0.294635
0.298478
0.301040
0.295916
0.301040
0.295916
0.297197
0.294635
0.295916
0.293354
0.294635
0.298478
0.294635
0.294635
0.295916
0.294635
0.295916
0.295916
0.293354
0.294635
0.295916
0.297197
0.295916
0.297197
0.297197
0.297197
0.297197
0.294635
0.297197
0.295916
0.298478
0.295916
0.301040
0.297197
0.299759
0.295916
0.295916
0.298478
0.298478
0.295916
0.295916
0.297197
0.295916
0.303602
0.294635
0.297197
0.295916
0.295916
0.295916
0.295916
0.297197
0.295916
0.295916
0.297197
0.298478
0.298478
0.294635
0.297197
0.298478
0.299759
0.297197
0.297197
0.297197
0.299759
0.295916
0.294635
0.295916
0.298478
0.294635
0.295916
0.312569
0.393274
0.347157
0.308726
0.318975
0.339471
0.390712
0.421456
0.397117
0.342033
0.334347
0.313851
0.315132
0.306164
0.303602
0.306164
0.303602
0.308726
0.299759
0.297197
0.299759
0.298478
0.302321
0.299759
0.297197
0.298478
0.298478
0.298478
0.299759
0.298478
0.297197
0.298478
0.297197
0.297197
0.295916
0.295916
0.297197
0.298478
0.297197
0.302321
0.298478
0.298478
0.298478
0.297197
0.298478
0.295916
0.295916
0.294635
0.295916
0.295916
0.297197
0.295916
0.294635
0.294635
0.295916
0.295916
0.295916
0.295916
0.295916
0.295916
0.295916
0.297197
0.294635
0.294635
0.295916
0.295916
0.297197
0.297197
0.294635
0.297197
0.299759
0.294635
0.298478
0.299759
0.294635
0.297197
0.294635
0.295916
0.295916
0.295916
0.295916
0.295916
0.294635
0.297197
0.295916
0.295916
0.297197
0.297197
0.297197
0.297197
0.294635
0.295916
0.301040
0.294635
0.297197
0.294635
0.294635
0.297197
0.295916
0.295916
0.294635
0.294635
0.295916
0.297197
0.294635
0.302321
0.294635
0.301040
0.294635
0.297197
0.297197
0.294635
0.294635
0.294635
0.299759
0.293354
0.295916
0.297197
0.301040
0.321537
0.308726
0.310007
0.335628
0.315132
0.299759
0.293354
0.293354
0.294635
0.299759
0.299759
0.302321
0.301040
0.295916
0.297197
0.303602
0.321537
0.336909
0.331785
0.303602
0.297197
0.298478
0.295916
0.306164
0.303602
0.303602
0.302321
0.304883
0.299759
0.295916
0.293354
0.292073
0.298478
0.298478
0.298478
0.295916
0.301040
0.299759
0.311288
0.330504
0.327942
0.322818
0.329223
0.317694
0.312569
0.311288
0.307445
0.307445
0.304883
0.297197
0.294635
0.295916
0.298478
0.301040
0.302321
0.308726
0.306164
0.306164
0.293354
0.293354
0.294635
0.297197
0.303602
0.303602
0.295916
0.295916
0.297197
0.298478
0.304883
0.301040
0.301040
0.301040
0.301040
0.313851
0.311288
0.306164
0.298478
0.295916
0.297197
0.298478
0.302321
0.297197
0.302321
0.308726
0.311288
0.298478
0.297197
0.295916
0.297197
0.311288
0.302321
0.299759
0.303602
0.304883
0.299759
0.295916
0.301040
0.310007
0.303602
0.307445
0.310007
0.310007
0.303602
0.294635
0.297197
0.303602
0.298478
0.294635
0.297197
0.302321
0.301040
0.294635
0.295916
0.301040
0.306164
0.299759
0.299759
0.301040
0.307445
0.302321
0.299759
0.303602
0.301040
0.303602
0.301040
0.301040
0.307445
0.315132
0.308726
0.301040
0.294635
0.299759
0.301040
0.301040
0.299759
0.299759
0.295916
0.295916
0.293354
0.298478
0.297197
0.301040
0.301040
0.293354
0.297197
0.306164
0.299759
0.298478
0.297197
0.299759
0.304883
0.308726
0.313851
0.307445
0.301040
0.304883
0.308726
0.304883
0.292073
0.298478
0.303602
0.297197
0.292073
0.294635
0.303602
0.302321
0.295916
0.298478
0.301040
0.302321
0.298478
0.292073
0.294635
0.301040
0.303602
0.298478
0.295916
0.303602
0.306164
0.307445
0.317694
0.312569
0.303602
0.303602
0.307445
0.306164
0.304883
0.304883
0.308726
0.308726
0.302321
0.299759
0.304883
0.302321
0.298478
0.293354
0.299759
0.308726
0.303602
0.307445
0.311288
0.303602
0.301040
0.301040
0.304883
0.304883
0.301040
0.299759
0.298478
0.299759
0.295916
0.302321
0.301040
0.295916
0.297197
0.301040
0.301040
0.299759
0.294635
0.298478
0.307445
0.301040
0.295916
0.295916
0.297197
0.299759
0.295916
0.293354
0.301040
0.304883
0.298478
0.297197
0.301040
0.303602
0.301040
0.295916
0.301040
0.304883
0.301040
0.299759
0.298478
0.293354
0.297197
0.299759
0.304883
0.306164
0.297197
0.301040
0.298478
0.293354
0.297197
0.307445
0.299759
0.294635
0.292073
0.297197
0.298478
0.295916
0.290792
0.294635
0.297197
0.298478
0.297197
0.295916
0.301040
0.299759
0.295916
0.293354
0.297197
0.299759
0.298478
0.295916
0.298478
0.303602
0.308726
0.299759
0.310007
0.336909
0.315132
0.311288
0.302321
0.299759
0.303602
0.304883
0.297197
0.297197
0.299759
0.304883
0.298478
0.294635
0.295916
0.298478
0.297197
0.295916
0.297197
0.301040
0.299759
0.295916
0.293354
0.298478
0.298478
0.294635
0.294635
0.295916
0.299759
0.299759
0.297197
0.302321
0.302321
0.299759
0.301040
0.294635
0.293354
0.295916
0.303602
0.301040
0.298478
0.294635
0.298478
0.298478
0.297197
0.294635
0.298478
0.304883
0.301040
0.294635
0.295916
0.320256
0.303602
0.298478
0.298478
0.299759
0.298478
0.297197
0.294635
0.298478
0.297197
0.306164
0.357405
0.416332
0.367653
0.310007
0.322818
0.357405
0.379183
0.407365
0.416332
0.390712
0.331785
0.318975
0.311288
0.310007
0.308726
0.303602
0.308726
0.306164
0.304883
0.303602
0.303602
0.304883
0.306164
0.306164
0.301040
0.303602
0.304883
0.306164
0.303602
0.303602
0.302321
0.303602
0.303602
0.301040
0.302321
0.301040
0.302321
0.299759
0.307445
0.303602
0.304883
0.303602
0.299759
0.301040
0.301040
0.301040
0.299759
0.299759
0.301040
0.302321
0.326661
0.303602
0.301040
0.302321
0.302321
0.306164
0.298478
0.302321
0.301040
0.302321
0.299759
0.299759
0.299759
0.304883
0.298478
0.299759
0.301040
0.301040
0.299759
0.299759
0.322818
0.311288
0.307445
0.299759
0.301040
0.301040
0.303602
0.301040
0.301040
0.304883
0.353562
0.310007
0.308726
0.444515
0.495756
0.751960
0.492180
0.260314
0.220603
0.201387
0.198825
0.191139
0.188577
0.186015
0.175767
0.175767
0.175767
0.180891
0.171924
0.169362
0.174486
0.168081
0.169362
0.165519
0.166800
0.168081
0.166800
0.165519
0.162957
0.165519
0.162957
0.166800
0.162957
0.162957
0.162957
0.165519
0.161676
0.160395
0.161676
0.159114
0.160395
0.161676
0.162957
0.160395
0.160395
0.159114
0.160395
0.160395
0.159114
0.160395
0.159114
0.157833
0.156552
0.173205
0.160395
0.180891
0.162957
0.160395
0.160395
0.159114
0.157833
0.160395
0.159114
0.160395
0.161676
0.159114
0.157833
0.156552
0.165519
0.159114
0.160395
0.159114
0.162957
0.156552
0.160395
0.157833
0.160395
0.157833
0.159114
0.159114
0.157833
0.155271
0.157833
0.155271
0.159114
0.159114
0.153990
0.157833
0.155271
0.157833
0.155271
0.153990
0.155271
0.162957
0.164238
0.160395
0.162957
0.162957
0.157833
0.161676
0.157833
0.160395
0.160395
0.156552
0.157833
0.157833
0.156552
0.153990
0.155271
0.155271
0.153990
0.153990
0.155271
0.152709
0.153990
0.150146
0.159114
0.153990
0.155271
0.151428
0.152709
0.152709
0.147584
0.146303
0.146303
0.148865
0.145022
0.146303
0.146303
0.142460
0.145022
0.143741
0.148865
0.147584
0.146303
0.147584
0.147584
0.150146
0.152709
0.161676
0.166800
0.174486
0.175767
0.173205
0.175767
0.175767
0.182172
0.171924
0.166800
0.170643
0.162957
0.164238
0.161676
0.170643
0.164238
0.166800
0.166800
0.166800
0.171924
0.205230
0.283373
0.278249
0.257752
0.228289
0.211636
0.206511
0.201387
0.202668
0.205230
0.200106
0.202668
0.194982
0.191139
0.192420
0.191139
0.192420
0.194982
0.193701
0.191139
0.191139
0.192420
0.186015
0.186015
0.193701
0.188577
0.187296
0.188577
0.196263
0.188577
0.196263
0.205230
0.238537
0.292340
0.320522
0.288497
0.225727
0.209074
0.201387
0.192420
0.203949
0.196263
0.193701
0.201387
0.198825
0.200106
0.196263
0.196263
0.200106
0.196263
0.202668
0.196263
0.201387
0.206511
0.200106
0.198825
0.198825
0.196263
0.194982
0.194982
0.193701
0.196263
0.193701
0.193701
0.194982
0.197544
0.193701
0.196263
0.196263
0.196263
0.196263
0.197544
0.209074
0.215479
0.209074
0.200106
0.200106
0.202668
0.201387
0.198825
0.202668
0.197544
0.201387
0.210355
0.197544
0.189858
0.191139
0.193701
0.192420
0.196263
0.200106
0.224446
0.394822
0.371763
0.230851
0.205230
0.235975
0.253909
0.262876
0.275687
0.285935
0.278249
0.280811
0.260314
0.233413
0.221884
0.215479
0.215479
0.212917
0.211636
0.209074
0.206511
0.205230
0.203949
0.210355
0.207792
0.205230
0.205230
0.203949
0.201387
0.203949
0.201387
0.203949
0.205230
0.212917
0.210355
0.225727
0.215479
0.207792
0.206511
0.206511
0.200106
0.198825
0.197544
0.202668
0.206511
0.203949
0.202668
0.207792
0.209074
0.210355
0.214198
0.225727
0.235975
0.225727
0.227008
0.229570
0.244942
0.250066
0.257752
0.256471
0.252628
0.234694
0.232132
0.232132
0.235975
0.234694
0.235975
0.247504
0.255190
0.257752
0.252628
0.248785
0.247504
0.243661
0.241099
0.237256
0.235975
0.234694
0.234694
0.234694
0.237256
0.242380
0.244942
0.252628
0.260314
0.269282
0.274406
0.276968
0.301307
0.292340
0.285935
0.283373
0.285935
0.287216
0.293621
0.306431
0.300026
0.308993
0.310274
0.298745
0.300026
0.305150
0.294902
0.291059
0.298745
0.300026
0.297464
0.301307
0.306431
0.324366
0.342300
0.357672
0.344862
0.339738
0.342300
0.346143
0.343581
0.353829
0.353829
0.351267
0.361515
0.356391
0.351267
0.353829
0.357672
0.356391
0.348705
0.342300
0.352548
0.351267
0.349986
0.355110
0.364077
0.361515
0.383293
0.393541
0.380731
0.402508
0.399946
0.394822
0.396103
0.396103
0.393541
0.403789
0.397384
0.392260
0.392260
0.388417
0.385855
0.380731
0.371763
0.366639
0.374325
0.367920
0.371763
0.383293
0.373044
0.369201
0.378168
0.393541
0.396103
0.414037
0.407632
0.402508
0.393541
0.398665
0.417880
0.425566
0.430690
0.434533
0.431971
0.438377
0.439658
0.446063
0.446063
0.457592
0.456311
0.456311
0.461435
0.474245
0.490898
0.496023
0.510114
0.515238
0.516519
0.510114
0.517800
0.522924
0.512676
0.520362
0.524205
0.519081
0.512676
0.504990
0.504990
0.519081
0.537015
0.547263
0.556231
0.556231
0.561355
0.574165
0.570322
0.565198
0.560074
0.595942
0.601066
0.580570
0.578008
0.597223
0.586975
0.627968
0.635654
0.661274
0.665118
0.657431
0.657431
0.642059
0.639497
0.653588
0.656150
0.674085
0.663837
0.677928
0.693300
0.712515
0.725326
0.729169
0.730450
0.736855
0.743260
0.756070
0.775285
0.820121
0.852147
0.880329
0.893140
0.891859
0.891859
0.899545
0.908512
0.927727
0.940537
0.926446
0.911074
0.917479
0.921322
0.939256
0.981530
1.004588
1.018680
1.027647
0.982880
0.996971
1.005939
1.002096
0.986723
0.984161
1.007220
1.000815
1.005939
1.017468
1.008501
1.000815
0.999534
0.996971
0.996971
0.999534
1.000815
1.016187
1.036683
1.062304
1.080238
1.121231
1.159661
1.139165
1.146851
1.137884
1.141727
1.143008
1.143008
1.123793
1.107139
1.090486
1.080238
1.067428
1.068709
1.048212
1.041807
1.013625
1.036683
1.044369
1.030278
1.026435
1.004658
1.012344
1.009782
0.995690
1.000815
1.000815
1.002096
1.014906
1.041807
1.071271
1.121231
1.163504
1.195530
1.216026
1.248052
1.299293
1.317227
1.327475
1.333880
1.362063
1.385121
1.403056
1.420990
1.414585
1.427395
1.432519
1.431238
1.426114
1.414585
1.404337
1.397932
1.390245
1.391526
1.376154
1.372311
1.372311
1.385121
1.417147
1.442767
1.465826
1.471049
1.483859
1.501793
1.513323
1.531257
1.553034
1.554315
1.559439
1.578655
1.588903
1.582498
1.569688
1.558158
1.556877
1.544067
1.526133
1.515885
1.519728
1.506917
1.500512
1.491545
1.486421
1.480016
1.473611
1.471049
1.467206
1.467206
1.468487
1.474892
1.495388
1.472330
1.490264
1.515885
1.522290
1.532538
1.533819
1.527414
1.523571
1.513323
1.508198
1.503074
1.488983
1.474892
1.471049
1.464644
1.456958
1.447990
1.444147
1.440304
1.435180
1.436461
1.483859
1.454396
1.430056
1.445428
1.440304
1.460801
1.459520
1.468487
1.496669
1.503074
1.524852
1.550472
1.567126
1.577374
1.553034
1.574812
1.574812
1.562001
1.558158
1.563282
1.549191
1.628615
1.636301
1.615804
1.590184
1.659359
1.663202
1.587622
1.586341
1.567126
1.544067
1.544067
1.523571
1.517166
1.491545
1.481297
1.478735
1.459520
1.432618
1.433899
1.449271
1.444147
1.447990
1.435180
1.436461
1.439023
1.436461
1.436461
1.430056
1.437742
1.446709
1.442866
1.433899
1.451833
1.455677
1.444147
1.419808
1.415965
1.433899
1.442866
1.436461
1.433899
1.422370
1.415965
1.409560
1.404436
1.391626
1.380096
1.382658
1.386501
1.381377
1.391626
1.400593
1.394188
1.401874
1.399312
1.408279
1.405717
1.400593
1.405717
1.395469
1.386501
1.390345
1.383939
1.362162
1.366005
1.380096
1.378815
1.377534
1.374972
1.353195
1.355757
1.345509
1.316045
1.327574
1.327574
1.341666
1.344228
1.340385
1.340385
1.341666
1.339104
1.339104
1.357038
1.389063
1.440304
1.446709
1.459520
1.501793
1.503074
1.536381
1.536381
1.545348
1.573531
1.624772
1.626053
1.611961
1.604275
1.597870
1.568407
1.535100
1.509480
1.500512
1.465925
1.471049
1.478735
1.497950
1.517166
1.546629
1.541505
1.579936
1.668326
1.749031
1.865604
1.918126
1.911721
1.957837
1.959318
1.954194
1.946508
1.938821
1.922168
1.904234
1.882456
1.868365
1.849150
1.801752
1.781256
1.783818
1.796628
1.851712
1.910639
1.972128
2.005435
2.040022
2.059237
2.064362
2.070767
2.063081
2.060519
2.059237
2.040022
2.015683
1.993905
1.973409
1.946508
1.918325
1.896548
1.878613
1.863241
1.873489
1.902953
1.961880
2.029774
2.084858
2.120727
2.161719
2.188621
2.191183
2.192464
2.192464
2.203993
2.193745
2.174530
2.155314
2.137380
2.122008
2.101511
2.079734
2.060519
2.041303
2.025931
2.014402
1.988781
1.959318
1.923449
1.877332
1.932416
1.952913
1.977252
1.990062
2.010559
2.018245
2.016964
2.016964
2.015683
2.014402
2.015683
2.018245
2.015683
2.011840
2.018245
2.016964
2.007997
2.001591
1.999029
1.988781
1.978533
1.973409
1.982376
1.965723
1.928573
1.955475
2.040022
2.066924
2.075891
2.070767
2.066924
2.065643
2.061800
2.043865
2.025931
2.016964
1.940102
1.901672
1.886299
1.859398
1.897829
1.897829
1.947789
1.947789
1.941383
2.230895
2.165562
2.238581
2.218084
2.238581
2.243705
2.248829
2.243705
2.250110
2.234738
2.183497
2.146347
2.133537
2.113040
2.097668
2.082296
2.051551
2.028493
2.022088
2.020807
2.009278
1.997748
1.981095
1.979814
1.979814
1.995186
1.992624
1.969566
1.918325
2.311599
2.219365
2.256515
2.241143
2.159157
2.182216
2.300070
2.339782
2.382055
2.399990
2.402552
2.388460
2.383336
2.393584
2.300070
2.182216
2.045146
2.089982
2.081015
2.133537
2.184778
2.232176
2.266763
2.289822
2.279573
2.137380
2.224489
2.151471
2.200150
2.369245
2.389741
2.397428
2.399990
2.416643
2.420486
2.325690
2.318004
2.419205
2.489661
2.513011
2.588592
2.666734
2.709008
2.719256
2.720537
2.701322
2.701322
2.533508
2.410530
2.587311
2.486110
2.614212
2.575782
2.574501
2.571939
2.388752
2.293957
2.232468
2.162011
2.525822
2.314453
2.269617
2.263212
2.260650
2.254245
2.238873
2.235030
2.233749
2.240154
2.260650
2.287552
2.383628
2.424621
2.448960
2.506606
2.546318
2.584749
2.606526
2.651362
2.641114
2.620617
2.580906
2.528384
2.416935
2.318296
2.309329
2.265774
2.562971
2.537351
2.633428
2.724380
2.648800
2.603964
2.561690
2.442555
2.913972
2.999800
2.923527
2.797987
2.754432
2.719845
2.705754
2.686538
2.667323
2.655794
2.581494
2.505914
2.408556
2.283709
2.668015
2.548880
2.566814
2.579625
2.372099
2.352884
2.443836
2.588592
2.474581
2.410530
2.346478
2.318296
2.278584
2.254245
2.452803
2.511730
2.433588
2.370818
2.351603
2.347759
2.341355
2.249121
2.635990
2.404124
2.384909
2.395157
2.463052
2.619336
2.655205
2.662891
2.615493
2.618055
2.683388
2.706446
2.747439
2.758968
2.643676
2.441274
2.678263
2.824300
2.653924
2.528384
2.360570
2.514292
2.575782
2.524541
2.519417
2.456646
2.469457
2.436150
2.480986
2.433588
2.715413
2.831986
2.824300
2.580906
2.454084
2.697479
2.846077
2.966494
3.060597
3.082374
3.069564
3.052911
3.047787
3.050349
3.033695
3.010637
2.977330
2.888940
2.890221
2.963239
3.036258
3.105433
3.166922
3.197666
3.230973
3.243783
3.268122
3.282214
3.323206
3.337298
3.337298
3.314239
3.300148
3.273247
3.234816
3.175889
2.883816
2.704473
2.830013
2.899188
2.803111
2.723688
2.644264
2.581494
2.528972
2.550750
2.762119
2.707035
2.723688
2.722407
2.739060
2.777491
2.847947
2.929933
2.999108
3.060597
3.105433
3.091341
2.983736
2.851790
2.837699
2.927371
2.796706
2.769805
2.768524
2.899188
3.034976
3.118243
3.023447
2.913279
2.871006
2.859476
2.741622
2.636578
3.019604
2.936338
2.959396
2.976049
2.996546
3.063159
3.138739
3.191261
3.187418
3.237378
3.277090
3.273247
3.265560
3.251469
3.146425
3.100308
3.069564
3.014480
2.956834
2.849228
2.713440
3.192542
3.151549
3.172046
3.280933
3.275809
3.260436
3.251469
3.242502
3.241221
3.265560
3.298867
3.320644
3.323206
3.301429
3.265560
3.196385
3.028571
3.019604
2.862038
2.755713
2.712159
2.698067
2.789020
2.809516
2.773648
2.762119
2.806954
2.905593
2.892783
2.929933
2.854352
2.876130
2.970925
2.996546
3.010637
3.001670
2.941462
2.855633
2.882535
2.726250
2.666042
2.676290
2.700629
2.618644
2.642983
2.778772
2.890221
3.063159
3.088779
3.128491
3.197666
3.193823
3.266841
3.164360
2.942743
2.812078
3.008075
3.033695
3.096465
3.227130
3.251469
3.234816
3.111838
3.095184
3.161798
3.148987
3.157954
3.209195
3.291181
3.343703
3.414159
3.475648
3.532905
3.579021
3.548277
3.511127
3.470134
3.416332
3.407364
3.321536
3.163970
3.161408
3.075580
2.932105
2.938900
2.859476
2.817203
2.762119
2.824889
2.949148
2.856914
2.749308
2.728812
2.705754
2.795425
2.900469
2.928652
2.942743
2.978611
3.095184
3.186137
2.909436
2.823608
2.995265
3.001670
3.000389
3.019604
3.036258
3.150268
3.411597
3.567882
3.781423
3.698157
3.723777
3.858284
3.955642
4.044564
4.027911
3.988199
3.907495
3.685878
3.347688
3.206244
3.096076
3.062769
3.548277
3.594394
3.484226
3.441952
3.381744
3.354842
3.324098
3.363810
3.210087
3.142193
3.134506
2.984627
3.035868
3.020496
2.971817
2.978222
3.074299
3.089671
3.105043
3.033306
3.040992
3.131944
3.172937
3.231864
3.238269
3.243393
3.242112
3.234426
3.222897
3.208806
3.190871
3.161408
3.166532
3.240831
3.345875
3.453481
3.589270
3.693033
3.750678
3.766051
3.758364
3.735306
3.691751
3.594394
3.575178
3.517532
3.292072
3.206244
3.067894
3.019215
2.939791
2.895345
2.840261
2.768524
2.785177
3.311677
3.264279
3.280933
3.280933
3.286057
2.896626
2.892783
3.109276
3.110557
3.211757
3.224568
3.178451
3.123367
3.073407
3.063159
3.023447
2.955553
2.960677
2.976049
3.557634
3.508565
3.568773
3.616171
3.540591
3.579021
3.566211
3.541872
3.514970
3.481664
3.436828
3.406083
3.374058
3.331784
3.292072
3.252361
3.212649
3.179342
3.157565
3.137069
3.147317
3.198558
3.307445
3.453481
3.568773
3.631543
3.676379
3.622576
3.520094
3.335627
3.215211
3.229302
3.189590
3.178061
3.144755
3.099919
3.024339
3.511127
3.412488
3.395835
3.286948
3.134506
3.023058
3.286948
3.201120
3.112729
3.357404
3.490631
3.570054
3.648197
3.707124
3.658445
3.714810
3.625138
3.526500
3.517532
3.544434
3.520094
3.404802
3.499598
3.389430
3.349718
3.350999
3.315131
3.310007
3.293353
3.271576
3.260047
3.225459
3.184466
3.195996
3.221616
3.206244
3.167813
3.190871
3.064050
3.584146
3.540591
3.564930
3.576459
3.488069
3.110167
3.310007
3.526500
3.536748
3.525218
3.506003
3.484226
3.283105
3.151160
3.185747
3.176780
3.088390
3.010247
3.067894
3.033306
3.017934
2.967974
3.016653
3.012810
2.939791
3.011918
3.022166
3.096465
3.197666
3.325768
3.341141
3.321925
3.286057
3.234816
3.246345
3.333455
3.329612
3.301429
3.292462
3.278371
3.247626
3.225849
3.246345
3.257874
3.173327
3.148987
3.138739
3.143863
3.157954
3.114400
3.027290
3.036258
2.969644
3.090060
3.265560
3.336017
3.365480
3.312958
3.323206
3.288619
3.261717
3.246345
3.228411
3.207914
3.195104
3.178451
3.188699
3.201509
3.230973
3.239940
3.241221
3.257874
3.287338
3.343703
3.405192
3.483334
3.566211
3.681503
3.906963
3.969733
3.924148
3.883155
3.826790
3.758896
3.655133
3.315662
3.276700
3.256204
3.184466
3.306164
3.400959
3.440671
3.438109
3.429142
3.412488
3.407364
3.390711
3.381744
3.371496
3.295915
3.180623
3.090952
3.535467
3.475259
3.470134
3.546996
3.545715
3.499598
3.432985
3.443233
3.444514
3.357404
3.646916
3.721215
3.740430
3.739149
3.650759
3.330503
3.344594
3.372777
3.466291
3.485507
3.509846
3.486788
3.535467
3.546996
3.525218
3.494474
3.412488
3.463729
3.450919
3.409926
3.326660
3.313850
3.326660
3.353561
3.316412
3.152441
3.124258
3.144755
3.148598
3.161408
3.183185
3.171656
3.335627
3.280543
3.368934
3.495755
3.546996
3.680222
3.863408
3.919773
3.917211
3.899277
3.880062
3.853160
3.830102
3.783985
3.781423
3.750678
3.699438
3.676379
3.740430
3.734025
3.721215
3.709686
3.693033
3.669974
3.655883
3.461167
3.362529
3.380463
3.406083
3.376620
3.318974
3.313850
3.365091
3.338189
3.452200
3.470134
3.302320
3.256204
3.245955
3.208806
3.213930
3.393273
3.349718
3.299758
3.252361
3.243393
3.249799
3.326660
3.270295
3.301039
3.297196
3.279262
3.238269
3.219054
3.272857
3.270295
3.243393
3.254923
3.231864
3.226740
3.235707
3.368934
3.495755
3.509846
3.516251
3.563649
3.582865
3.614890
3.669974
3.768613
3.853160
3.786547
3.728901
3.712248
3.704562
3.678941
3.609766
3.621295
3.622576
3.596956
3.598237
3.621295
3.704562
3.817291
3.935146
4.053000
4.134236
4.186758
4.231593
4.267462
4.209816
4.009976
3.743524
4.186758
4.175228
4.116302
4.062499
3.980513
3.880593
3.965141
3.919024
3.835757
3.819104
3.833195
3.820385
3.739681
3.438640
3.488069
3.649478
3.566211
3.566211
3.631543
3.698157
3.480383
3.435547
3.386868
3.276700
3.293353
3.466291
3.495755
3.504722
3.480383
3.443233
3.426580
3.409926
3.311288
3.699438
3.589270
3.467572
3.415051
3.380463
3.371496
3.370215
3.384306
3.422737
3.488069
3.558525
3.628981
3.636667
3.782704
4.091430
4.067623
4.001009
3.661538
3.556494
3.630794
3.650009
3.974108
3.929272
3.874188
3.833195
3.762739
3.716622
3.694845
3.660257
3.641042
3.611578
3.601330
3.623108
3.635918
3.628232
3.592363
3.569305
3.555213
3.546246
3.535998
3.534717
3.569305
3.643604
3.737119
3.856254
3.961298
4.031754
4.093243
4.134236
4.152170
4.162418
4.140641
4.109896
4.058655
3.885717
3.752491
3.525750
3.419425
3.462448
3.549558
3.684065
3.591832
3.546996
3.526500
3.441952
3.471416
3.367653
3.288229
3.292072
3.310007
3.407364
3.456043
3.445795
3.445795
3.441952
3.426580
3.407364
3.398397
3.393273
3.384306
3.383025
3.406083
3.459886
3.522656
3.572616
3.582865
3.639230
3.695595
4.026098
3.974108
3.682035
3.575710
3.514221
3.474509
3.464261
3.447608
3.390711
3.375339
3.317693
3.285667
3.326660
3.350999
3.362529
3.407364
3.548277
3.596956
3.669974
3.787828
3.814729
3.500879
3.486788
3.568773
3.685346
3.702000
3.686627
3.686627
3.700719
3.652040
3.466291
3.493193
3.568773
3.621295
3.627700
3.564930
3.452200
3.626419
3.762208
3.722496
3.718653
3.725058
3.740430
3.781423
3.937708
4.058655
4.132955
4.172666
4.171385
4.152170
4.189320
4.182914
4.156013
4.123988
4.082995
4.036878
3.979232
3.936958
3.894684
3.876750
3.815261
3.785798
3.737119
3.758896
3.762739
3.721746
3.721746
3.666662
3.612859
3.685878
3.726871
3.738400
3.712779
3.692283
3.728152
3.744805
3.758896
3.790922
3.815261
3.834476
3.847286
3.866502
3.866502
3.860097
3.797327
3.725590
3.606454
3.552651
4.134236
4.100929
4.080433
4.029192
3.970265
3.920305
3.913900
3.883155
3.933115
3.944644
3.854973
3.815261
3.824228
3.842162
3.865221
3.908776
3.971546
4.031754
4.076590
4.120144
4.116302
4.066341
3.919024
3.926710
3.826790
3.806294
3.729433
3.648728
3.635918
3.694845
3.669225
3.689721
3.744805
3.863940
3.849849
3.874188
3.943363
4.077871
4.141922
3.897246
4.068903
4.181633
4.168823
4.254652
4.127831
4.074028
4.002290
3.971546
3.947206
4.012538
4.113739
4.098367
4.049688
4.168823
4.220064
4.273867
4.303330
4.339199
4.282834
4.106053
3.974108
3.992042
4.134236
4.457053
4.507686
4.503843
4.437230
4.000401
3.963251
4.206645
4.186149
4.270697
4.314251
4.356525
4.215613
4.037550
3.894076
4.035597
3.957454
4.082995
4.166261
4.181633
4.177790
3.934396
3.793484
4.057374
3.971546
4.056093
4.089400
4.107334
4.130393
4.123988
4.121426
4.113739
4.116302
4.104772
4.093243
3.890841
3.876750
3.851130
3.910057
4.033035
4.112458
4.047126
4.152170
4.391721
4.381473
4.303330
4.339199
4.154732
4.002290
3.847286
3.846005
3.807575
3.770425
3.706374
3.837038
4.009976
4.190600
4.272586
4.268743
4.257214
4.241841
4.237998
4.225188
4.225188
4.250809
4.355853
4.505732
4.674219
4.797197
4.847157
4.476942
4.237390
4.337310
4.648599
4.498719
4.743394
4.770296
4.687029
4.612730
4.555084
4.494876
4.446197
4.361650
4.155405
3.924821
3.924148
3.728152
3.684597
3.743524
3.647447
3.770425
3.979232
3.981794
3.947206
3.933115
3.935677
3.942082
3.976670
4.038159
4.139360
4.245685
4.323827
4.377630
4.399407
4.400688
4.396845
4.393002
4.375068
4.354571
4.322546
4.281553
4.231593
4.185476
4.139360
4.090681
4.052250
4.036878
4.003572
3.974108
3.958735
3.939520
4.059937
3.871626
3.676911
3.988199
4.100929
4.177790
4.277710
4.353291
4.403250
4.341761
4.535196
5.076460
5.050463
4.967197
4.860872
4.395861
4.029864
4.010649
4.058047
4.182306
4.201521
4.177182
4.149000
4.127222
4.091353
4.058047
4.061890
4.050361
4.054204
4.037550
4.045237
4.010649
3.920978
3.936958
3.997166
3.929272
3.906214
4.002290
3.953611
3.862659
3.826790
3.816542
3.854973
3.856254
3.874188
3.865221
3.899808
3.904932
3.904932
3.902370
3.913900
3.948487
3.993323
4.038159
4.070185
4.094524
4.104772
4.091962
4.103491
4.048407
3.993323
4.344323
4.496765
4.653723
4.653723
4.655004
4.678062
4.643475
4.581985
4.524339
4.447478
4.371898
4.334748
4.287350
4.251482
4.207927
4.177182
4.026021
3.960689
3.832587
3.760177
3.831914
3.838319
3.901089
3.920305
3.913900
3.925429
3.971546
4.001009
4.009976
4.003572
3.992042
3.984356
3.944644
3.910057
3.949768
4.015100
4.099648
4.223907
4.321265
4.440400
4.575580
4.655004
4.777982
4.652442
4.316813
4.998318
4.700744
4.517558
4.572642
4.702025
4.648222
4.588014
4.502185
4.456069
4.381770
4.275821
4.227142
4.197679
4.164372
4.141314
4.078543
3.956846
3.830025
4.334075
4.172666
4.141922
4.107334
3.821666
3.784517
3.867783
3.843443
3.790922
3.712779
3.751210
3.715341
3.749929
3.947206
4.113739
4.147046
4.186758
4.173947
4.171385
4.161137
4.141922
4.140641
4.127831
4.106053
4.008696
4.035597
4.080433
4.140641
4.154732
4.184196
4.134236
3.849849
4.094524
4.057374
4.008696
3.849849
3.821666
3.772987
3.691002
3.637199
3.625670
3.610297
3.780674
3.940801
3.813980
3.650009
3.720465
3.743524
3.664100
3.617984
3.602611
3.585958
3.573148
3.576991
3.587239
3.589801
3.596206
3.585958
3.578272
3.542403
3.584677
3.761458
3.879312
3.890841
3.972827
4.081714
4.214940
4.328951
4.413498
4.412218
4.448086
4.523058
4.471817
4.437230
4.384708
4.329624
4.229704
3.988872
3.900481
3.835757
3.958735
3.813980
3.744805
3.694845
3.779392
3.824228
3.835757
3.844724
3.820385
3.781955
3.796046
3.805013
3.769144
3.758896
3.743524
3.728152
3.758896
3.707655
3.694845
3.673068
3.682035
3.708936
3.656414
3.656414
3.566743
3.533436
3.525750
3.643604
3.610297
3.596206
3.616703
3.615422
3.639761
3.602611
3.583396
3.621827
3.584677
3.606454
3.575710
3.578272
3.592363
3.588520
3.569305
3.542403
3.568024
3.547527
3.547527
3.535998
3.544965
3.582115
3.584677
3.566743
3.559057
3.603892
3.569305
3.579553
3.541122
3.553932
3.592363
3.588520
3.584677
3.582115
3.632075
3.665381
3.778111
3.805013
3.810137
3.817823
3.835757
3.816542
3.772987
3.820385
3.808856
3.820385
3.806294
3.784517
3.787079
3.755053
3.707655
3.697407
3.685878
3.685878
3.658976
3.651290
3.650009
3.634637
3.730714
3.769144
3.822947
3.848567
3.886998
3.910057
3.936958
3.926710
3.954892
3.985637
3.940801
3.898527
3.888279
3.892122
3.852411
3.862659
3.862659
3.811418
3.799889
3.742243
3.762739
3.749929
3.740962
3.730714
3.708936
3.694845
3.728152
3.726871
3.728152
3.724308
3.717903
3.715341
3.746086
3.806294
3.922867
3.993323
3.997166
4.112458
4.168823
4.177790
4.185476
4.188038
4.188038
4.190600
4.189320
4.176509
4.153451
4.147046
4.298206
4.158575
4.049688
4.052250
4.085557
4.068903
4.006134
4.013820
4.047126
4.022787
4.047126
4.054812
4.018944
4.035597
4.050969
4.002290
3.995885
3.949768
3.952330
3.916462
3.934396
3.995885
4.492922
4.534587
4.500000
4.488471
4.494876
4.552522
4.580704
4.540993
4.277102
4.047799
3.937631
3.866502
3.807575
3.771706
3.863940
3.871626
3.825509
3.817823
3.825509
3.940801
4.226469
4.147046
3.916462
3.876750
3.920305
4.044564
4.152170
4.216221
4.252090
4.263619
4.263619
4.253371
4.239279
4.229031
4.245685
4.267462
4.316141
4.367382
4.408374
4.436557
4.471817
4.473098
4.459007
4.443635
4.410328
4.373178
4.330905
4.270697
4.224580
4.170777
4.131065
4.095197
4.065733
4.038832
4.023459
4.017054
4.009368
4.005525
3.997839
3.987591
3.981186
3.963251
3.963251
3.947879
3.942082
3.934396
3.927991
3.927991
3.930553
3.930553
3.934396
3.930553
3.925429
3.913900
3.910057
3.904932
3.907495
3.903651
3.906214
3.910057
3.913900
3.911338
3.911338
3.906214
3.906214
3.903651
3.907495
3.916462
3.930553
3.947206
3.962579
3.975389
3.998447
4.034316
4.085557
4.147046
4.208535
4.207254
4.259776
4.268743
4.237998
4.284115
4.190600
4.172666
4.381473
4.519824
4.816412
4.931705
4.900960
4.944515
5.120919
5.001784
5.032529
4.857029
4.977445
4.935171
4.740456
4.623883
4.585452
4.629007
4.397142
4.416733
4.305285
4.359087
4.288631
4.233547
4.142594
4.192554
4.093915
4.055485
3.945317
3.995885
4.030473
3.976670
3.927991
3.913900
3.990761
3.913900
3.939520
3.892122
3.962579
3.924148
3.962579
3.889560
3.945925
3.972827
3.933115
3.915181
3.894684
3.958735
3.906214
3.933115
3.865221
3.908776
3.912619
3.890841
3.825509
3.857535
3.902370
3.812699
3.820385
3.798608
3.852411
3.826790
3.881874
3.876750
4.017663
4.057374
4.116302
4.097086
4.141922
4.246965
4.181633
4.177790
4.111177
4.186758
4.097086
4.116302
4.007414
4.052250
4.043283
3.997166
3.920305
3.944644
3.983075
3.920305
3.931834
3.908776
3.967703
3.939520
4.097086
4.189320
4.290520
4.311017
4.398126
4.325108
4.371225
4.252090
4.212378
4.287958
4.331513
4.425028
4.496765
4.479504
4.361650
4.377022
4.332186
4.304003
4.211770
4.154124
4.133627
4.102883
4.128503
4.134908
4.268135
4.230985
4.323219
4.254044
4.351401
4.282226
4.329624
4.234828
4.284788
4.250200
4.284788
4.201521
4.280945
4.370616
4.369336
4.116974
4.050361
4.024740
4.247638
4.333467
4.312971
4.506405
4.602482
4.528183
4.215613
4.205365
4.092635
4.059328
4.023459
4.014492
4.000401
3.964532
3.986310
3.960689
3.879985
3.879312
3.954892
3.898527
3.962579
3.911338
3.933115
3.863940
3.898527
3.935677
3.943363
3.886998
3.919024
3.962579
3.939520
3.945925
3.889560
3.984356
3.968984
3.999728
3.925429
3.960016
3.975389
3.819104
3.749929
3.751210
3.848567
3.811418
3.813980
3.770425
3.755053
3.902370
4.089400
4.107334
4.396845
4.559535
4.669095
4.663970
4.656285
4.729303
4.573018
4.575580
4.476942
4.558927
4.400080
4.369336
4.230985
4.245076
4.251482
4.229704
4.186149
4.279664
4.365492
4.315533
4.242514
4.307847
4.391113
4.329624
4.311689
4.259168
4.316813
4.195117
4.254044
4.116974
4.172058
4.095197
4.108007
3.992715
4.054204
4.022178
3.912010
3.861378
3.892122
3.972827
3.975389
4.068903
4.106053
4.331513
4.143203
4.214940
4.094524
4.176509
4.084276
4.179071
4.033035
4.112458
4.109896
4.127831
4.052250
4.038159
4.103491
4.066341
4.108615
4.081714
4.218783
4.129112
4.234155
4.136798
4.182914
4.127831
4.182914
4.094524
4.091962
4.115020
4.040721
3.957454
3.989480
4.049688
4.058655
4.153451
4.167542
4.300768
4.221345
4.309736
4.271305
4.249527
4.107334
4.332794
4.373787
4.171385
4.044564
4.156013
4.138079
4.121426
4.015100
4.048407
4.099648
3.999728
4.053531
4.030473
4.106053
4.181633
4.262338
4.332794
4.319984
3.974108
3.783236
3.719184
3.676911
3.678192
3.826790
4.191882
4.481393
4.414171
4.625540
4.525620
4.789511
4.712649
4.886868
4.827941
4.845876
4.726741
4.669095
4.608887
4.519215
4.429543
4.324500
4.333467
4.304003
4.255324
4.264292
4.193835
4.473098
4.698558
4.570456
4.669095
4.597358
4.728022
4.615292
4.648599
4.624259
4.635788
4.263011
4.239952
4.164372
4.224580
4.149000
4.206645
4.133627
4.040112
4.055485
4.034988
4.061890
4.093915
4.149000
4.320657
4.334748
4.416733
4.400080
4.425701
4.538431
4.537149
4.480784
4.569175
4.534587
4.629383
4.538431
4.617854
4.434668
4.526901
4.384708
4.350120
4.295036
4.411609
4.496157
4.585828
4.621697
4.631945
4.660128
4.684467
4.747237
4.848438
4.944515
4.972321
5.018438
5.076084
5.124763
4.885211
4.941576
4.958230
4.818598
4.787854
4.645660
4.686653
4.449664
4.482970
4.406109
4.301441
4.283507
4.187430
4.328343
4.338591
4.265573
4.383427
4.393675
4.484628
4.209208
4.204083
4.179744
4.083667
3.990153
4.002963
4.063171
4.058047
4.001682
4.018335
4.151562
4.087511
4.136189
4.118255
4.214332
4.150280
4.200241
4.093915
4.127222
4.178463
4.109288
4.105445
4.068295
4.090073
4.056766
4.096478
4.178463
4.366774
4.443635
4.469255
4.535869
4.611449
4.601201
4.599920
4.644755
4.629383
4.754923
4.752361
4.725460
4.731865
4.660128
4.670376
4.552522
4.521777
4.467974
4.314251
4.220737
4.155405
4.163091
4.216894
4.084949
4.124660
4.102883
4.204083
4.273259
4.274540
4.257886
4.667814
4.748518
4.466693
4.344996
4.396237
4.379584
4.287350
4.254044
4.150280
4.150280
4.201521
4.095197
4.082386
4.060609
4.069576
4.070857
4.008087
3.924821
3.884436
3.961298
4.082995
4.194444
4.264900
4.334075
4.359695
4.398126
4.421185
4.405812
4.453210
4.224580
4.051642
3.956846
4.147718
4.287350
4.236109
4.263011
4.170777
4.143876
3.868456
3.731995
3.749929
3.886998
4.029192
4.033035
4.109896
4.054812
4.086838
4.066341
4.038159
4.039440
3.988199
4.039440
4.009976
4.070185
4.018944
4.089400
4.145765
4.138079
4.163699
4.094524
4.177790
4.373787
4.474988
4.575580
4.521777
4.394956
4.305285
4.374460
4.329624
4.196397
4.192554
4.067014
4.116974
4.070857
4.069576
4.151562
4.146438
4.279664
4.225861
4.251482
4.309127
4.234828
4.355244
4.252762
4.475660
4.564051
4.639631
4.876620
4.775420
4.872777
4.762609
4.895836
4.760047
4.658847
4.187430
4.274540
4.439792
4.286069
4.222018
4.222018
4.156686
4.191273
4.037550
4.043956
4.047799
4.020897
4.055485
3.914572
3.998447
4.030473
4.033035
4.122706
4.112458
4.319984
4.299488
4.389159
4.366101
4.252090
4.386597
4.316141
4.437838
4.254044
4.304003
4.341153
4.222018
4.261730
4.168215
4.230985
4.195117
4.161810
4.159248
4.045237
4.123379
4.093915
4.195117
4.163091
4.218175
4.320657
4.255324
4.433387
4.284788
4.433387
4.430825
4.433387
4.456445
4.275821
4.371898
4.284788
4.332186
4.227142
4.164372
4.206645
4.151562
4.189992
4.055485
4.111850
4.119536
4.070857
4.210489
4.133627
4.393675
4.450040
4.713931
4.751080
4.562770
4.551241
4.656285
4.756204
4.566613
4.712649
4.774138
4.751080
4.752361
4.587110
4.733146
4.589672
4.669095
4.438511
4.443635
4.480784
4.406485
4.566613
4.496157
4.653723
4.514091
4.649879
4.566613
4.534587
4.671657
4.560208
4.647317
4.397518
4.526901
4.433387
4.397518
4.359087
4.248919
4.336029
4.197679
4.255324
4.174620
4.206645
4.341153
4.251482
4.442354
4.392394
4.421857
4.745956
4.712649
4.736989
4.502562
4.464131
4.329624
4.250200
4.218175
4.124660
4.120817
4.128503
3.978624
3.995277
3.993996
3.912010
3.962579
4.017663
3.970265
4.135517
4.216221
4.267462
4.367382
4.275148
4.381473
4.307174
4.303330
4.350729
4.214940
4.230312
4.161137
4.184196
4.138079
4.112458
4.090681
4.009976
4.059937
4.021506
4.045845
3.943363
3.974108
4.004852
3.934396
3.979232
3.917743
3.975389
3.936958
3.951049
3.910057
3.898527
3.956173
3.886998
3.944644
3.879312
3.916462
3.947206
3.902370
3.901089
3.865221
3.912619
3.880593
3.920305
3.865221
3.908776
3.986918
3.936958
3.998447
3.957454
4.039440
4.001009
4.044564
3.961298
4.011258
4.056093
3.988199
4.068903
4.063779
4.077871
3.948487
4.004852
3.992042
3.998447
4.059937
4.029192
4.027911
3.885717
3.897246
3.924148
3.960016
3.875469
3.828071
3.857535
3.810137
3.911338
3.876750
3.968984
3.852411
3.884436
3.880593
3.895965
3.775549
3.848567
3.857535
3.851130
3.958735
3.931834
3.972827
3.844724
3.892122
3.893403
3.885717
3.842162
3.878031
3.892122
3.853692
3.847286
3.840881
3.863940
3.781955
3.811418
3.792203
3.817823
3.839600
3.838319
3.807575
3.797327
3.860097
3.811418
3.852411
3.783236
3.824228
3.846005
3.819104
3.798608
3.789641
3.846005
3.792203
3.821666
3.793484
3.807575
3.860097
3.838319
3.813980
3.802451
3.825509
3.826790
3.825509
3.801170
3.789641
3.798608
3.807575
3.849849
3.824228
3.857535
3.907495
3.869064
3.894684
3.980513
4.081714
4.147046
4.263619
4.375068
4.466021
4.520496
4.548679
4.583266
4.579423
4.578142
4.573018
4.547398
4.508967
4.464131
4.410328
4.369336
4.323219
4.293755
4.304003
4.366774
4.451321
4.526901
4.607606
4.662690
4.698558
4.707525
4.688310
4.661408
4.637069
4.607606
4.571737
4.528183
4.482066
4.446197
4.405204
4.360368
4.325781
4.296317
4.273259
4.273259
4.307847
4.380865
4.462850
4.540993
4.594796
4.647317
4.670376
4.663970
4.621697
4.444916
4.455164
4.647317
4.779263
4.726741
4.699839
4.675500
4.648599
4.656285
4.706244
4.622978
4.501281
4.453883
4.428263
4.405204
4.382146
4.368054
4.356525
4.379584
4.455164
4.565332
4.692153
4.793354
4.783106
4.807445
4.836909
4.825379
4.834347
4.812569
4.799759
4.772858
4.735708
4.699839
4.644755
4.594796
4.547398
4.501281
4.451321
4.415452
4.382146
4.346277
4.320657
4.286069
4.254044
4.233547
4.216894
4.196397
4.192554
4.200241
4.206645
4.187430
4.213051
4.245076
4.251482
4.247638
4.229704
4.218175
4.198959
4.198959
4.206645
4.215613
4.237390
4.263011
4.279664
4.282226
4.288631
4.291193
4.278383
4.270697
4.254044
4.245076
4.215613
4.181025
4.125941
4.142594
4.160529
4.238671
4.234828
4.200241
4.186149
4.273259
4.488471
4.524339
4.245076
4.159248
4.104164
4.131065
4.109288
4.218175
4.263011
4.201521
4.102883
4.181025
4.211770
4.216894
4.195117
4.189992
4.202803
4.189992
4.165653
4.111850
4.075981
4.019616
4.074700
4.119536
4.038832
4.065733
4.068295
4.216894
4.232266
4.232266
4.102883
4.059328
3.999120
3.929945
3.938239
3.972827
3.939520
3.921586
4.011258
4.008696
4.013820
3.998447
4.054812
4.016382
3.998447
3.999728
3.970265
3.979232
3.979232
3.990761
3.988199
4.056093
4.026630
3.979232
3.995885
3.971546
3.980513
3.989480
3.994604
4.100929
4.109896
4.090681
4.112458
4.213659
4.089400
4.102210
4.061217
4.049688
4.126550
4.062499
3.972827
3.992042
4.057374
4.063779
3.985637
3.945925
3.886998
3.831914
3.837038
3.949768
3.999728
4.022787
4.018944
4.003572
3.992042
3.967703
3.904932
3.931834
3.927991
3.926710
3.867783
3.867783
3.934396
3.935677
3.872907
3.872907
3.910057
3.879312
3.821666
3.813980
3.881874
3.974108
4.122706
4.307174
4.289239
4.239279
4.326389
4.357133
4.300768
4.294363
4.212378
4.127831
4.061217
4.061217
4.053531
4.030473
3.945925
3.911338
3.917743
3.939520
3.878031
3.799889
3.862659
3.858816
3.860097
3.797327
3.799889
3.851130
3.860097
3.872907
3.998447
4.061217
4.145765
4.263619
4.336637
4.343042
4.308455
4.330232
4.325108
4.325108
4.314860
4.299488
4.289239
4.254652
4.236717
4.254652
4.217502
4.156013
4.138079
4.106053
4.012538
3.966422
3.945925
3.934396
3.902370
3.919024
3.906214
3.935677
3.940801
4.066341
4.081714
4.104772
4.102210
4.080433
4.125268
4.166261
4.127831
4.066341
4.089400
4.085557
4.042002
3.995885
3.943363
3.901089
3.870345
3.847286
3.897246
3.963860
4.082995
4.175228
4.250809
4.294363
4.345604
4.487798
4.703682
4.619135
4.398799
4.200241
4.189992
4.261730
4.233547
4.224580
4.207927
4.189992
4.197679
4.155405
4.059328
4.082386
4.110569
4.115693
3.905605
3.846005
3.870345
3.901089
3.885717
3.870345
3.865221
3.856254
3.843443
3.810137
3.788360
3.770425
3.747367
3.734557
3.715341
3.710217
3.726871
3.753772
3.797327
3.842162
3.889560
3.922867
3.944644
3.958735
3.960016
3.954892
3.951049
3.926710
3.911338
3.885717
3.862659
3.847286
3.825509
3.803732
3.787079
3.781955
3.753772
3.739681
3.723027
3.707655
3.694845
3.678192
3.669225
3.657695
3.647447
3.632075
3.614141
3.611578
3.615422
3.615422
3.619265
3.623108
3.628232
3.624389
3.621827
3.615422
3.609016
3.610297
3.600049
3.596206
3.584677
3.578272
3.568024
3.562900
3.555213
3.551370
3.542403
3.537279
3.529593
3.524469
3.519345
3.515502
3.511659
3.509097
3.502692
3.539841
3.538560
3.550089
3.607735
3.658976
3.794765
3.826790
3.916462
3.897246
3.798608
3.708936
3.658976
3.600049
3.593644
3.566743
3.521907
3.518064
3.493724
3.455294
3.407896
3.348437
3.333065
3.376620
3.383025
3.399678
3.358685
3.239550
3.294634
3.334346
3.261328
3.842912
3.807043
3.509846
3.491912
3.504722
3.581583
3.740430
3.741711
3.769894
3.827540
3.904401
3.890310
3.900558
3.722496
3.680222
3.839069
3.855722
3.900558
4.009445
3.924148
3.843443
3.790922
3.863940
4.018944
3.940801
4.007414
4.132955
4.381473
4.386597
4.573627
4.598639
4.564051
4.420577
4.325781
4.147718
4.239952
4.157967
4.123379
4.211770
4.100321
4.154124
4.050361
4.183587
4.291193
4.318095
4.469255
4.529463
4.426981
4.234828
4.336029
4.562770
4.544836
4.532025
4.611449
4.553803
4.546117
4.420577
4.336029
4.220737
4.256606
4.325781
4.416733
4.517934
4.669095
4.789511
4.835628
4.952201
5.127325
5.091456
5.129887
5.137573
5.055587
4.995379
4.881368
4.818598
4.848062
4.696901
4.723803
4.769919
4.760952
4.552145
4.415076
4.251482
4.177182
4.181025
4.218175
4.182306
4.175901
4.193835
4.081105
4.052923
4.079824
4.054204
4.040112
4.064452
4.075981
4.095197
4.081105
4.015773
3.986310
4.136189
4.196397
4.223299
4.268135
4.356525
4.469255
4.543555
4.596076
4.633226
4.646037
4.660128
4.643475
4.564051
4.452602
4.351401
4.155405
4.022178
3.874861
3.831914
3.798608
3.897246
4.223907
4.446805
4.533307
4.616573
4.655004
4.726741
4.785668
4.807445
4.753642
4.784387
4.772858
4.728022
4.646037
4.596076
4.555084
4.503843
4.464131
4.467974
4.364212
4.304003
4.099040
3.969656
3.901762
3.920305
4.053531
4.015100
3.962579
3.919024
3.899808
3.881874
3.862659
3.839600
3.811418
3.788360
3.771706
3.757615
3.751210
3.737119
3.729433
3.719184
3.708936
3.698688
3.698688
3.689721
3.676911
3.664100
3.662819
3.648728
3.638480
3.643604
3.629513
3.626951
3.617984
3.609016
3.597487
3.588520
3.580834
3.574429
3.570586
3.562900
3.555213
3.544965
3.532155
3.525750
3.523188
3.516783
3.521907
3.520626
3.516783
3.506535
3.512940
3.507816
3.505254
3.505254
3.496286
3.479633
3.501410
3.598768
3.612859
3.574429
3.544965
3.542403
3.602611
3.726871
3.717903
3.735838
3.753772
3.774268
3.770425
3.767863
3.758896
3.757615
3.758896
3.760177
3.762739
3.764020
3.753772
3.757615
3.753772
3.728152
3.697407
3.689721
3.682035
3.683316
3.682035
3.679473
3.678192
3.676911
3.671787
3.667943
3.674349
3.675630
3.685878
3.701250
3.705093
3.716622
3.716622
3.720465
3.716622
3.717903
3.716622
3.710217
3.714060
3.714060
3.710217
3.708936
3.708936
3.697407
3.691002
3.697407
3.689721
3.687159
3.691002
3.715341
3.734557
3.760177
3.783236
3.798608
3.812699
3.828071
3.837038
3.837038
3.834476
3.833195
3.831914
3.830633
3.838319
3.828071
3.824228
3.815261
3.811418
3.801170
3.793484
3.805013
3.840881
3.921586
4.034316
4.147046
4.234155
4.317422
4.376349
4.407094
4.419904
4.419904
4.401969
4.390440
4.364820
4.337918
4.293082
4.263619
4.229031
4.195724
4.153451
4.118864
4.089400
4.052250
4.038159
4.030473
4.017663
4.008696
4.017663
4.253371
4.323827
4.395564
4.327670
4.322546
4.339199
4.304612
4.317422
4.270024
4.248247
4.156013
4.039440
4.065061
4.068903
4.076590
4.081714
4.098367
4.080433
4.066341
4.045845
4.031754
4.038159
4.033035
4.027911
4.024068
4.038159
4.095805
4.202130
4.277710
4.345604
4.408374
4.441681
4.483346
4.511529
4.515372
4.479504
4.466693
4.466693
4.465412
4.447478
4.423139
4.277102
4.183587
4.149000
4.198959
4.219456
4.200241
4.173339
4.166934
4.156686
4.147718
4.141314
4.122098
4.113131
4.102883
4.093915
4.088791
4.075981
4.070857
4.060609
4.050361
4.042675
4.033708
4.026021
4.018335
4.005525
4.000401
3.986310
3.999120
4.001682
4.038832
4.034988
4.028584
4.042675
4.052923
4.049080
4.032426
4.006806
4.000401
4.000401
3.992715
3.981186
3.983748
3.976062
3.965813
3.949160
3.964532
4.086229
4.124660
4.111850
4.142594
4.143876
4.155405
4.166934
4.202803
4.288631
4.282226
4.246357
4.271978
4.282226
4.205365
4.178463
4.179744
4.177182
4.149000
4.115693
4.136189
4.225861
4.174620
4.029864
3.969656
3.978624
3.958127
4.055485
4.049080
3.927383
3.862659
3.819104
3.749929
3.787079
3.714060
3.728152
3.798608
3.844724
3.761458
3.644885
3.575710
3.565462
3.489881
3.401491
3.458605
3.486788
3.457324
3.550839
3.541872
3.555963
3.575178
3.593113
3.630262
3.664850
3.673817
3.695595
3.639230
3.531624
3.406083
3.394554
3.438109
3.498317
3.514970
3.453481
3.466291
3.518813
3.662288
3.783985
3.827540
3.744273
3.723777
3.690470
3.700719
3.719934
3.703281
3.641792
3.654602
3.627700
3.617452
3.658445
3.710967
3.657164
3.609766
3.566211
3.534186
3.495755
3.467572
3.424018
3.354842
3.262609
3.247236
3.233145
3.166532
3.144755
3.144755
3.089671
3.074299
3.062769
3.033306
3.044835
3.087109
3.085828
3.088390
3.075580
3.071737
3.069175
3.069175
3.066612
3.053802
3.052521
3.033306
3.020496
3.029463
3.019215
2.988470
2.969255
3.071737
3.024339
3.001280
2.982065
2.989751
2.985908
2.951320
2.963239
2.990141
2.941462
2.936338
2.938900
2.909436
2.915841
2.932495
2.901750
2.905593
2.911998
2.883816
2.878692
2.894064
2.879973
2.913279
2.911998
2.888940
2.891502
2.899188
2.864600
2.867162
2.869725
2.860757
2.868443
2.854352
2.851790
2.854352
2.856914
2.855633
2.863319
2.849228
2.850509
2.854352
2.845385
2.851790
2.863319
2.845385
2.854352
2.856914
2.844104
2.849228
2.869725
2.836418
2.837699
2.849228
2.845385
2.846666
2.849228
2.854352
2.851790
2.846666
2.850509
2.854352
2.844104
2.859476
2.863319
2.836418
2.838980
2.845385
2.818484
2.831294
2.824889
2.821046
2.831294
2.809516
2.818484
2.818484
2.792863
2.787739
2.794144
2.778772
2.797987
2.827451
2.858195
2.881254
2.891502
2.874849
2.868443
2.838980
2.823608
2.835137
2.817203
2.815922
2.810797
2.801830
2.800549
2.814641
2.794144
2.792863
2.795425
2.765962
2.776210
2.776210
2.762119
2.768524
2.760838
2.774929
2.776210
2.758276
2.749308
2.750589
2.733936
2.737779
2.737779
2.740341
2.740341
2.741622
2.722407
2.724969
2.723688
2.696786
2.710878
2.700629
2.677571
2.680133
2.658356
2.649389
2.648108
2.635297
2.631454
2.642983
2.634016
2.649389
2.657075
2.649389
2.662199
2.672447
2.667323
2.660918
2.663480
2.687819
2.740341
2.709597
2.701910
2.717283
2.704473
2.717283
2.699348
2.700629
2.690381
2.689100
2.687819
2.700629
2.689100
2.680133
2.680133
2.681414
2.678852
2.681414
2.673728
2.664761
2.675009
2.659637
2.667323
2.649389
2.650670
2.650670
2.616082
2.601991
2.607115
2.589180
2.593024
2.600710
2.590461
2.604553
2.605834
2.594305
2.616082
2.630173
2.637859
2.640421
2.631454
2.630173
2.617363
2.612239
2.626330
2.619925
2.626330
2.631454
2.636578
2.645545
2.653232
2.659637
2.671166
2.685257
2.713440
2.730093
2.736498
2.750589
2.746746
2.759557
2.764681
2.746746
2.753151
2.749308
2.737779
2.749308
2.748027
2.730093
2.721126
2.675009
2.669885
2.669885
2.657075
2.658356
2.632735
2.581494
2.543064
2.584056
2.567403
2.577651
2.576370
2.586618
2.598148
2.598148
2.590461
2.569965
2.663480
2.741622
2.776210
2.737779
2.746746
2.764681
2.746746
2.742903
2.742903
2.735217
2.732655
2.723688
2.710878
2.687819
2.707035
2.707035
2.690381
2.694224
2.728812
2.805673
2.828732
2.822327
2.961958
2.979892
3.091341
3.133615
3.262998
3.389820
3.516641
3.543153
3.653321
3.758364
3.766051
3.876219
3.912087
3.972295
4.017663
4.068903
4.009976
3.921586
3.958735
3.870345
3.803732
3.761458
3.694845
3.602611
3.529593
3.475790
3.451451
3.429673
3.394554
3.399678
3.391992
3.331784
3.290791
3.295915
3.292072
3.286948
3.298477
3.318974
3.366372
3.422737
3.444514
3.480383
3.557244
3.600799
3.640511
3.678941
3.760926
3.744273
3.763489
3.798076
3.782704
3.750678
3.735306
3.731463
3.702000
3.689189
3.714810
3.731463
3.762208
3.773737
3.803200
3.812167
3.824978
3.835226
3.836507
3.787828
3.775018
3.775018
3.749397
3.705843
3.662288
3.626419
3.582865
3.514970
3.493193
3.458605
3.413769
3.386868
3.383025
3.347156
3.310007
3.271576
3.258766
3.248518
3.231864
3.243393
3.281824
3.310007
3.368934
3.459886
3.576459
3.662288
3.700719
3.755802
3.791671
3.792952
3.766051
3.740430
3.749397
3.745554
3.705843
3.751959
3.775018
3.819854
3.860846
3.887748
3.854441
3.786547
3.772456
3.714810
3.689189
3.693033
3.609766
3.570054
3.580302
3.540591
3.543153
3.525218
3.481664
3.462448
3.440671
3.393273
3.348437
3.342032
3.295915
3.249799
3.249799
3.261328
3.271576
3.294634
3.294634
3.252361
3.225459
3.248518
3.251080
3.385587
3.447076
3.462448
3.481664
3.497036
3.480383
3.484226
3.521375
3.477821
3.465010
3.457324
3.447076
3.475259
3.449638
3.488069
3.636667
4.063248
4.205973
4.327670
4.354571
4.267462
4.259776
4.278991
4.193162
4.167542
4.088119
4.031754
3.980513
4.006134
4.062499
4.111177
4.212378
4.268743
4.263619
4.334075
4.281553
4.285396
4.261057
4.267462
4.226469
4.197006
4.188038
4.136798
4.106053
4.104772
4.095805
4.088119
4.086838
4.081714
4.102210
4.070185
4.034316
4.029192
4.007414
4.024068
4.079152
4.116302
4.189320
4.327670
4.302050
4.311017
4.398126
4.407094
4.437838
4.414171
4.450040
4.388551
4.282226
4.214332
4.138752
4.068295
3.983748
3.999120
3.993996
3.926102
3.904932
3.889560
3.820385
3.784517
3.790922
3.769144
3.789641
3.885717
3.895965
4.016382
4.143203
4.204692
4.368663
4.519824
4.573018
4.592234
4.607606
4.605044
4.607606
4.648599
4.418015
4.402642
4.385989
4.310409
4.387270
4.270697
4.260448
4.223299
4.125941
4.147718
4.196397
4.213051
4.306565
4.397518
4.453883
4.685748
4.810007
4.852281
4.870215
4.908646
4.915051
4.862529
4.820255
4.845876
4.766452
4.671657
4.612730
4.801040
4.534587
4.419295
4.569175
4.388551
4.353963
4.307847
4.218175
4.246357
4.325781
4.268135
4.257886
4.287350
4.301441
4.296317
4.425701
4.346277
4.213051
4.195117
4.169496
4.088791
4.032426
4.034988
3.949160
3.946598
3.984356
3.956173
3.897246
3.840881
3.860097
3.828071
3.831914
3.830633
3.811418
3.919024
4.039440
4.149608
4.227750
4.410936
4.355853
4.426309
4.445524
4.435949
4.521777
4.758766
4.661408
4.564051
4.581985
4.471817
4.359087
4.343715
4.306565
4.222018
4.220737
4.160529
4.075981
4.078543
4.092635
4.008087
3.990153
4.092635
4.106726
4.120817
4.146438
4.132346
3.963251
4.023459
3.997839
3.955565
4.006806
4.161810
4.277102
4.507686
4.676781
4.610168
4.551241
4.502562
4.418015
4.462850
4.420577
4.593514
4.622978
4.579423
4.457726
4.446197
4.429543
4.323219
4.306565
4.300160
4.178463
4.206645
4.177182
4.136189
4.261730
4.369336
4.377022
4.482066
4.611449
4.713931
4.742113
4.769014
4.715211
4.501281
4.526901
4.374460
4.380865
4.309127
4.260448
4.310409
4.316813
4.216894
4.315533
4.309127
4.188711
4.279664
4.142594
4.079824
4.142594
4.264292
4.277102
4.432106
4.470536
4.377022
4.528183
4.610168
4.565332
4.608887
4.694715
4.812569
4.678062
4.707525
4.592234
4.406485
4.383427
4.312971
4.252762
4.207927
4.078543
4.046518
4.047799
3.933788
3.915181
3.833195
3.733276
3.775549
3.762739
3.685878
3.682035
3.662819
3.666662
3.669225
3.660257
3.661538
3.653852
3.705093
3.625670
3.569305
3.629513
3.650009
3.644885
3.532155
3.597487
3.591082
3.698688
3.779392
3.733276
3.995885
3.963860
3.778111
3.776830
3.707655
3.702531
3.694845
3.696126
3.725590
3.889560
3.892122
3.943363
3.985637
3.997166
4.052250
4.056093
4.009976
4.038159
4.018944
3.961298
3.957454
3.970265
3.926710
3.894684
3.988199
3.989480
4.085557
4.216221
4.214940
4.317422
4.430152
4.498046
4.525620
4.546117
4.500000
4.287350
4.123379
4.134908
4.083667
4.006806
3.999120
4.082386
3.954284
3.937631
3.948487
3.867783
3.831914
3.875469
3.798608
3.784517
3.813980
3.793484
3.897246
3.990761
4.040721
3.944644
3.878031
3.974108
3.916462
3.793484
3.871626
3.934396
3.952330
4.013820
4.080433
4.099648
4.157294
4.136798
4.082995
4.043283
4.091962
4.106053
4.134236
4.175228
4.234155
4.330232
4.352009
4.355853
4.399407
4.458334
4.405204
4.459007
4.526901
4.455164
4.377022
4.484628
4.516653
4.688310
4.667814
4.578142
4.725460
4.516653
4.703682
4.695996
4.756204
4.703682
4.730584
4.616573
4.561489
4.361650
4.246357
4.243795
4.105445
4.160529
4.114412
3.947879
3.913900
3.944644
3.962579
4.022787
4.008696
4.067623
4.148327
4.021506
3.997166
4.004852
4.018944
3.985637
3.976670
3.625670
3.602611
3.675630
3.678192
3.615422
3.589801
3.327191
3.479102
3.500879
3.470134
3.473978
3.412488
3.394554
3.389430
3.408645
3.404802
3.389430
3.383025
3.402240
3.376620
3.389430
3.380463
3.383025
3.390711
3.353561
3.363810
3.318974
3.336908
3.307445
3.295915
3.306164
3.298477
3.334346
3.350999
3.399678
3.407364
3.456043
3.480383
3.500879
3.539310
3.473978
3.535467
3.521375
3.529062
3.518813
3.476540
3.461167
3.447076
3.497036
3.482945
3.444514
3.466291
3.430423
3.439390
3.485507
3.523937
3.499598
3.477821
3.585427
3.614890
3.570054
3.568773
3.553401
3.498317
3.502160
3.507284
3.543153
3.488069
3.523937
3.650759
3.741711
3.878781
3.913368
3.896715
3.821135
3.796795
3.726339
3.767332
3.867251
3.956923
3.876750
3.870345
3.897246
3.785798
3.797327
3.837038
3.766582
3.742243
3.770425
3.733276
3.760177
3.674349
3.658976
3.635918
3.598768
3.630794
3.634637
3.564181
3.502692
3.495005
3.415582
3.462448
3.509846
3.525218
3.591832
3.582865
3.604642
3.639230
3.580302
3.607204
3.652040
3.611047
3.677660
3.713529
3.753240
3.703281
3.709686
3.603361
3.465010
3.517532
3.727620
3.643073
3.521375
3.476540
3.841631
4.010726
4.011258
4.030473
4.021506
4.120144
4.209816
4.103491
4.284115
4.117582
3.951049
3.867783
4.006134
3.986918
4.214940
4.141922
3.837038
3.965141
3.770425
3.708936
3.658976
3.938239
3.715341
3.418144
3.572616
3.767332
3.775018
4.060686
3.680754
3.619265
3.771706
3.801170
4.088119
3.837038
3.585958
3.860097
3.927991
4.141922
3.691002
3.479633
3.807575
4.018944
4.109896
3.707655
3.455294
3.682035
3.810137
3.861378
3.460418
3.487319
3.566743
3.706374
3.561619
3.310538
3.502160
3.717372
3.540591
3.344594
3.730182
3.745554
3.812167
3.780142
3.891591
3.910806
3.976138
3.840881
3.824228
3.869064
3.927991
3.872907
3.842162
3.861378
3.874188
3.815261
3.813980
3.833195
3.810137
3.762739
3.869064
4.121426
4.095805
4.122706
4.163699
4.148327
3.915181
3.886998
3.985637
3.924148
3.862659
3.903651
3.893403
3.783236
3.733276
3.781955
3.706374
3.607735
3.701250
3.779392
3.698688
3.812699
3.871626
3.890841
3.940801
3.979232
3.957454
3.936958
3.992042
4.190600
4.212378
4.075309
4.245685
4.277710
4.266181
4.223907
4.150889
4.157294
4.140641
4.009976
3.578272
3.761458
3.623108
3.678192
3.767863
3.682035
3.524469
3.543684
3.620546
3.705093
3.637199
3.675630
3.822947
4.093243
4.147046
3.971546
4.047126
4.100929
3.888279
3.893403
4.214940
4.179071
4.093243
4.054812
4.072747
3.980513
3.888279
3.733276
3.697407
3.594925
3.615422
3.657695
3.735838
3.714060
3.684597
3.715341
3.724308
3.724308
3.790922
4.026630
4.132955
4.184196
4.236717
4.221345
4.205973
4.181633
4.120144
4.081714
4.035597
3.985637
3.979232
3.894684
3.805013
3.843443
3.819104
3.771706
3.833195
3.866502
3.802451
3.933115
3.976670
3.960016
3.956173
4.063779
3.992042
3.960016
4.056093
4.015100
4.012538
4.045845
3.922867
3.876750
3.899808
3.721746
3.796046
3.737119
3.671787
3.721746
3.642323
3.606454
3.689721
3.671787
3.660257
3.684597
3.705093
3.698688
3.705093
3.753772
3.751210
3.751210
3.766582
3.739681
3.762739
3.815261
3.820385
3.883155
3.912619
3.929272
3.976670
4.009976
4.047126
4.244403
3.997166
4.134236
4.031754
4.053531
4.034316
3.816542
4.017663
4.081714
4.132955
4.162418
4.204692
4.134236
4.034316
4.031754
4.063779
4.081714
4.222626
4.198287
4.121426
4.094524
4.029192
3.794765
3.749929
3.673068
3.633356
3.644885
3.609016
3.605173
3.643604
3.712779
3.752491
3.872907
3.936958
4.054812
4.022787
4.018944
4.045845
4.048407
3.990761
4.011258
4.029192
3.992042
3.980513
3.983075
3.842162
3.902370
3.958735
3.867783
3.835757
3.889560
3.894684
3.830633
3.721746
3.904932
3.688440
3.715341
3.728152
3.739681
3.796046
3.858816
3.819104
3.862659
3.948487
4.144484
4.171385
4.213659
3.886998
3.705093
3.794765
3.785798
3.626951
3.669225
3.697407
3.711498
3.734557
3.810137
3.756334
3.826790
3.890841
3.797327
3.819104
3.911338
3.892122
3.939520
4.054812
4.050969
3.999728
4.066341
3.927991
3.921586
4.009976
3.878031
3.757615
4.038159
4.337918
4.481393
4.776700
4.720335
4.590952
4.542274
4.507686
4.520496
4.460288
4.444916
4.511529
4.329624
4.309127
4.418015
4.366774
4.321938
4.485909
4.538431
4.521777
4.523058
4.539711
4.497438
4.482066
4.544836
4.450040
4.475660
4.570456
4.537149
4.448759
4.373178
4.437230
4.552522
4.532025
4.540993
4.593514
4.534587
4.483346
4.389832
4.341153
4.310409
4.397518
4.519215
4.523058
4.622978
4.699839
4.670376
4.711369
4.717773
4.757485
4.962449
5.059431
5.032529
4.818598
5.101704
4.860872
4.859591
5.101704
4.965916
4.848062
4.553426
4.659751
4.503467
4.488094
4.529087
4.445820
4.480784
4.693434
4.784387
4.725460
4.708807
4.643475
4.540993
4.500000
4.576861
4.485909
4.401361
4.424419
4.374460
4.261730
4.297598
4.342434
4.328343
4.338591
4.352682
4.292474
4.274540
4.697277
4.854843
4.612730
4.624259
4.601201
4.519215
4.534587
4.603763
4.453883
4.398799
4.375741
4.248919
4.174620
4.198959
4.143876
4.127222
4.166934
4.628102
4.540993
4.624259
4.702401
4.601201
4.731865
4.756204
4.663970
4.610168
4.561489
4.533307
4.387270
4.312971
4.289912
4.193835
4.134908
4.047799
3.985029
4.015773
4.034988
4.011930
4.006806
4.163091
4.182306
4.198959
4.220737
4.201521
4.196397
4.169496
4.150280
4.150280
4.119536
4.109288
4.028584
4.034988
4.022178
3.873580
3.951049
3.997166
3.929272
4.027911
4.104772
4.052250
4.127831
4.176509
3.999728
4.076590
4.213659
4.158575
4.149608
4.229031
4.200849
4.209816
4.197006
4.144484
4.159856
4.230312
4.252090
4.277710
4.207254
4.307174
4.337918
4.454491
4.505124
4.448759
4.462850
4.501281
4.525620
4.580704
4.579423
4.564051
4.592234
4.583266
4.502562
4.467974
4.380865
4.342434
4.325781
4.269416
4.230985
4.219456
4.202803
4.177182
4.205365
4.192554
4.228423
4.252762
4.184868
4.149000
4.207927
4.169496
4.323219
4.233547
4.188711
4.124660
4.027302
4.005525
3.997839
3.991434
3.993996
3.956846
3.937631
4.024068
4.085557
4.129112
4.115020
4.080433
4.076590
4.080433
4.065061
4.058655
4.093243
4.102210
4.077871
4.015100
4.038159
4.016382
3.971546
3.939520
3.903651
3.871626
3.874188
3.822947
3.843443
3.879312
3.934396
4.003572
4.062499
4.077871
4.085557
3.983075
4.003572
4.056093
4.058655
4.088119
4.059937
4.045845
4.038159
3.988199
3.942082
3.961298
4.021506
4.003572
4.097086
4.149608
4.188038
4.156013
4.168823
4.168823
4.088119
4.027911
4.008696
3.980513
3.716622
3.518064
3.784517
3.807575
3.792203
3.770425
3.826790
3.858816
3.869064
3.857535
3.724308
3.738400
3.906214
3.792203
3.840881
3.854973
3.769144
3.734557
3.737119
3.739681
3.726871
3.720465
3.711498
3.588520
3.500129
3.398929
3.427861
3.407364
3.343313
3.254923
3.139631
3.134506
3.295915
3.484226
3.691751
3.582865
3.669974
3.641792
3.681503
3.805762
3.882624
3.924897
3.857003
3.691751
3.586708
3.522656
3.457324
3.426580
3.391992
3.345875
3.289510
3.271576
3.285667
3.261328
3.353561
3.581583
3.548277
3.622576
3.554682
3.599518
3.548277
3.573897
3.589270
3.621295
3.622576
3.712248
3.757083
4.033784
4.021506
3.875469
3.783236
3.853692
3.889560
3.983075
4.063779
4.056093
4.030473
4.070185
4.071465
4.053531
4.237998
4.150889
4.125268
4.134236
3.862659
3.707655
3.765301
3.840881
3.995885
4.074028
3.753772
3.661538
3.824228
4.074028
3.944644
4.237998
4.326389
4.335356
4.369944
4.512137
4.332186
4.246357
4.202803
4.292474
4.201521
4.113131
4.177182
4.224580
4.325781
4.274540
4.487190
4.564051
4.624259
4.520496
4.269416
4.096478
4.213051
4.598639
4.876620
4.471817
4.324500
4.288631
4.146438
4.011930
4.013211
4.147718
4.392394
4.216894
4.328343
4.403923
4.402642
4.432106
4.321938
4.316813
4.639631
4.634507
4.666533
4.713931
4.804883
4.770296
4.748518
4.558927
4.505124
4.484628
4.428263
4.535869
4.703682
4.779263
4.690872
4.603763
4.744675
4.863810
4.786949
4.769014
4.676781
4.674219
4.598639
4.447478
4.355244
4.202803
4.149000
4.116974
4.165653
4.205365
4.222018
4.237390
4.205365
4.218175
4.321938
4.555084
4.585828
4.570456
4.529463
4.647317
4.744675
4.941953
4.849343
4.883930
5.055587
4.616197
4.751985
4.827565
4.772481
4.782730
4.921080
4.784010
4.898022
4.919799
4.813474
5.028686
5.122200
5.201624
5.237493
5.278485
5.379686
5.489854
5.484001
5.439165
5.517308
5.623632
5.658220
5.544209
5.199614
5.404578
5.335402
5.355899
5.339245
5.273913
5.263665
5.276475
5.267508
5.299534
5.289286
5.145811
5.159902
5.222672
5.341807
5.385362
5.455819
5.514746
5.569829
5.623632
5.695370
5.776074
5.744049
5.776074
5.664625
5.445570
5.399454
5.491687
5.463505
5.613384
5.683840
5.494249
5.568549
5.517308
5.528837
5.536523
5.548052
5.499373
5.441727
5.498092
5.586483
5.544209
5.505778
5.505778
5.567267
5.618508
5.615946
5.582640
5.542928
5.618508
5.664625
5.518589
5.524994
5.481439
5.500654
5.512184
5.466067
5.432760
5.443008
5.377676
5.204738
5.230359
5.289286
5.259822
5.200895
5.194490
5.268789
5.402016
5.481439
5.426355
5.427636
5.467348
5.481439
5.577516
5.527556
5.651815
5.678716
5.601855
5.650534
5.763264
5.720990
5.790165
5.882399
5.915706
5.895209
5.823472
5.787603
5.750453
5.776074
5.774793
5.864465
5.870870
5.806818
5.879837
5.835001
5.824753
5.806818
5.779917
5.781198
5.819629
5.886242
5.840125
5.695370
5.662063
5.709461
5.704337
5.557019
5.645410
5.535242
5.544209
5.674873
5.612103
5.679997
5.541647
5.685122
5.676154
5.613384
5.677435
5.596731
5.697932
5.510902
5.639005
5.491687
5.600574
5.564705
5.548052
5.495530
5.524994
5.619790
5.441727
5.554457
5.416107
5.546771
5.425074
5.507060
5.357180
5.422512
5.494249
5.354618
5.414826
5.317468
5.459661
5.339245
5.405859
5.282880
5.364866
5.431479
5.245731
5.340527
5.275194
5.389205
5.303377
5.517308
5.440446
5.621070
5.681278
5.699213
5.548052
5.591607
5.701775
5.554457
5.687684
5.521151
5.649253
5.590326
5.599293
5.437884
5.512184
5.563425
5.413545
5.377676
5.357180
5.523713
5.350775
5.453257
5.380238
5.475034
5.535242
5.364866
5.376395
5.345651
5.477596
5.512184
5.414826
5.382800
5.302096
5.443008
5.426355
5.364866
5.264946
5.487844
5.418669
5.618508
5.477596
5.618508
5.551895
5.550614
5.568549
5.599293
5.573673
5.453257
5.501935
5.363585
5.443008
5.476315
5.393048
5.309782
5.409702
5.537804
5.437884
5.555738
5.592888
5.486563
5.562143
5.432760
5.425074
5.492968
5.501935
5.523713
5.569829
5.505778
5.590326
5.480158
5.523713
5.696651
5.551895
5.667187
5.554457
5.683840
5.583921
5.482720
5.395610
5.486563
5.536523
5.418669
5.521151
5.378957
5.564705
5.450695
5.505778
5.400734
5.528837
5.673592
5.557019
5.595450
5.585202
5.751735
5.574954
5.688964
5.554457
5.710742
5.668468
5.518589
5.536523
5.623632
5.744049
5.523713
5.697932
5.498092
5.710742
5.658220
5.562143
5.624914
5.473753
5.646691
5.494249
5.569829
5.656939
5.595450
5.732519
5.604417
5.723552
5.496811
5.735081
5.712023
5.696651
5.703056
5.644129
5.781198
5.560863
5.704337
5.738925
5.724833
5.737643
5.641567
5.720990
5.590326
5.676154
5.577516
5.685122
5.535242
5.539085
5.608260
5.482720
5.569829
5.431479
5.554457
5.527556
5.558300
5.560863
5.591607
5.720990
5.636443
5.776074
5.606979
5.758140
5.700494
5.712023
5.617228
5.601855
5.687684
5.550614
5.677435
5.562143
5.738925
5.785041
5.782479
5.801694
5.699213
5.849092
5.738925
5.832439
5.637723
5.755578
5.782479
5.792727
5.809381
5.719709
5.893928
5.777355
5.920830
5.655658
5.715866
5.760702
5.646691
5.592888
5.699213
5.751735
5.746611
5.843968
5.613384
5.896490
5.864465
6.023312
5.884536
5.987018
6.063879
5.954992
6.034416
5.907595
6.057474
5.972927
6.025449
5.876850
5.919124
5.952430
5.884536
5.999828
5.782054
5.976770
5.848668
5.966522
5.811518
5.924248
5.979332
5.921686
5.949868
5.632175
5.888379
5.878131
6.007514
5.893503
6.024168
6.102310
5.940901
5.966522
5.834576
6.002390
5.873007
6.040821
5.879412
5.951149
6.069004
6.029292
5.984456
5.958836
6.079252
5.952430
6.024168
5.861478
6.038259
6.053631
6.049788
6.042102
5.961398
6.084376
5.976770
6.067722
5.898627
6.011357
6.138179
6.077971
6.188138
6.003671
6.218883
6.054912
6.163799
6.035697
6.120245
6.135617
6.033135
6.202230
6.060036
6.253471
6.140741
6.222726
6.150989
6.145865
6.130493
6.076690
6.058755
5.905033
6.079252
5.930653
6.056193
5.821766
5.965240
5.922967
5.948587
5.812799
5.766682
5.857635
5.747467
5.878131
5.687259
5.802551
5.755153
5.788460
5.688540
5.810237
5.920405
5.821766
5.912719
5.837138
6.011357
5.866602
5.974208
5.784616
5.888379
5.890941
5.735938
5.812799
5.692383
5.862759
5.776930
5.873007
5.738500
5.762839
5.972927
5.735938
5.937058
5.816642
6.042102
5.915281
6.010077
5.970365
6.007514
6.081814
5.921686
5.937058
5.796146
6.006233
5.815361
5.975489
5.802551
5.949868
6.010077
5.883255
5.814080
5.812799
5.970365
5.725689
5.910157
5.697507
5.855072
5.750029
5.788460
5.712879
5.791022
5.929372
5.833295
5.947306
5.832014
6.004952
5.834576
5.916562
5.714160
5.816642
5.816642
5.755153
5.821766
5.711598
5.874288
5.739781
5.817923
5.656514
5.780774
5.698788
5.707755
5.679573
5.660357
5.744905
5.593744
5.703912
5.542503
5.720565
5.541222
5.643704
5.459237
5.612959
5.734657
5.711598
5.747467
5.751310
5.911438
5.797427
5.844824
5.660357
5.837138
5.709036
5.748748
5.623208
5.630894
5.674448
5.596306
5.543784
5.493824
5.634737
5.431054
5.567267
5.449413
5.649253
5.551895
5.710742
5.550614
5.694088
5.767107
5.709461
5.618508
5.650534
5.782479
5.583921
5.700494
5.554457
5.855497
5.673592
5.888804
6.020750
6.116401
6.188138
6.109996
6.022887
5.960116
6.188138
6.004952
6.101029
6.066442
6.271405
6.081814
6.304712
6.118963
6.318803
6.197106
6.243223
6.035697
6.089500
6.175328
6.004952
5.908875
5.674448
5.823047
5.597587
5.684697
5.519445
5.610397
5.595025
5.575810
5.509197
5.583496
5.778212
5.586058
5.682135
5.601430
5.753872
5.588620
5.682135
5.530974
5.588620
5.648828
5.536098
5.551470
5.573248
5.810237
5.680854
5.989580
5.926810
5.814080
5.621927
5.793584
5.840981
5.862759
6.045945
5.919124
6.031854
5.908875
6.048507
6.013919
6.034416
5.747467
5.783336
5.847386
5.650109
5.780774
5.702631
5.842262
5.597587
5.788460
5.573248
5.737219
5.548908
5.673168
5.515602
5.606555
5.709036
5.539941
5.619365
5.492543
5.732095
5.621927
5.636018
5.511759
5.556594
5.605273
5.542503
5.465642
5.511759
5.743624
5.593744
5.694945
5.670606
5.789741
5.797427
5.758996
5.691102
5.677011
5.787179
5.625770
5.605273
5.623208
5.771806
5.488700
5.589901
5.381094
5.586483
5.562143
5.527556
5.298253
5.387924
5.492968
5.389205
5.284162
5.206019
5.533961
5.399454
5.494249
5.311063
5.466067
5.408421
5.500654
5.349494
5.426355
5.524994
5.402016
5.457099
5.368709
5.521151
5.346931
5.500654
5.371271
5.495530
5.508340
5.532680
5.381519
5.485282
5.609541
5.487844
5.536523
5.437884
5.581359
5.328997
5.472472
5.368709
5.510902
5.316187
5.346931
5.138125
5.071512
5.140687
5.235483
5.113785
4.999774
5.088165
5.043329
5.230359
5.270070
5.432760
5.243169
5.468629
5.348213
5.439165
5.402016
5.453257
5.363585
5.405859
5.501935
5.431479
5.409702
5.450695
5.654377
5.473753
5.671030
5.603136
5.740205
5.551895
5.439165
5.416107
5.373833
5.668468
5.992567
6.066442
6.061317
6.112558
5.846106
5.939620
5.876850
5.967803
5.878131
5.873007
5.924248
6.052350
6.106153
6.183014
6.177890
6.239379
6.387978
6.015201
5.938339
6.126649
6.299588
5.856354
6.107434
5.775650
5.914000
5.881974
5.752591
5.661638
5.709036
5.746186
5.638580
5.634737
5.554032
5.655233
5.437459
5.563425
5.400734
5.482720
5.454537
5.449413
5.343089
5.434041
5.617228
5.495530
5.656939
5.568549
5.700494
5.550614
5.644129
5.526275
5.382800
5.204738
5.231639
5.348213
5.361023
5.254698
5.263665
5.259822
5.421231
5.581359
5.398172
5.541647
5.448133
5.535242
5.496811
5.512184
5.417388
5.494249
5.494249
5.195771
5.084322
4.998493
5.189366
5.336683
5.555738
5.431479
5.660782
5.592888
5.605698
5.654377
5.699213
5.908020
5.964385
6.062598
5.815361
5.764120
5.782054
5.829452
5.816642
6.030573
5.992142
6.036978
5.930653
6.019043
5.979332
6.063879
6.021605
6.198387
6.211197
6.111277
5.924248
5.910157
6.028011
5.835857
5.881974
5.807675
5.930653
5.779492
5.943463
5.874288
5.952430
5.956274
5.870445
5.694945
5.665482
5.808956
5.670606
5.737219
5.630894
5.718003
5.634737
5.698788
5.557876
5.623208
5.679573
5.573248
5.564281
5.529693
5.669324
5.538660
5.630894
5.523288
5.650109
5.538660
5.662920
5.501511
5.591182
5.671886
5.682135
5.673168
5.687259
5.861478
5.724409
5.907595
5.733376
5.843544
5.774368
5.830733
5.692383
5.718003
5.769244
5.634737
5.709036
5.615521
5.739781
5.616803
5.680854
5.560438
5.624489
5.592463
5.638580
5.515602
5.573248
5.689821
5.542503
5.537379
5.520726
5.632175
5.502791
5.629613
5.633456
5.807675
5.839700
5.851230
5.737219
5.807675
5.903751
5.764120
5.873007
5.743624
5.846106
5.737219
5.766682
5.642423
5.712879
5.838419
5.660357
5.796146
5.700069
5.798708
5.666762
5.711598
5.616803
5.664200
5.720565
5.644985
5.551470
5.565562
5.707755
5.520726
5.652671
5.571967
5.720565
5.753872
5.817923
5.689821
5.888379
5.755153
5.502791
5.406715
5.343089
5.295691
5.280318
5.402016
5.608260
5.717147
5.940045
5.782054
5.742343
5.725689
5.779492
5.597587
5.677011
5.610397
5.861478
5.706474
5.597587
5.639861
5.801270
5.880693
5.607835
5.655233
5.662920
5.797427
5.747467
5.756434
5.673168
5.762839
5.867883
5.728251
5.661638
5.669324
5.780774
5.670606
5.621927
5.561718
5.653952
5.615521
5.620646
5.495105
5.522007
5.602711
5.515602
5.407996
5.439165
5.596731
5.489125
5.609541
5.484001
5.641567
5.688964
5.650534
5.537804
5.710742
5.838844
5.660782
5.899052
5.749173
5.941326
5.775650
5.765401
5.666762
5.719285
5.880693
5.680854
5.616803
5.659076
5.857635
5.755153
5.683416
5.597587
5.650109
5.575810
5.574529
5.461799
5.497667
5.661638
5.525850
5.644985
5.659076
5.887098
5.732095
5.917843
5.677011
5.794865
5.610397
5.568124
5.583496
5.595025
5.753872
5.556594
5.711598
5.548908
5.659076
5.570686
5.616803
5.447708
5.566843
5.653952
5.474609
5.547627
5.578372
5.685978
5.579653
5.584777
5.568124
5.661638
5.664200
5.651390
5.524569
5.595025
5.675730
5.596306
5.527131
5.510478
5.601430
5.528412
5.552752
5.487419
5.522007
5.601430
5.504073
5.627051
5.459237
5.561718
5.543784
5.552752
5.542503
5.484857
5.588620
5.515602
5.554032
5.393905
5.503216
5.542928
5.519870
5.544209
5.460943
5.355899
5.339245
5.367428
5.399454
5.419950
5.503216
5.361023
5.437884
5.349494
5.362304
5.399454
5.455819
5.492968
5.417388
5.496811
5.410983
5.482720
5.409702
5.355899
5.457099
5.382800
5.422512
5.279037
5.371271
5.355899
5.399454
5.382800
5.332840
5.432760
5.371271
5.399454
5.296972
5.336683
5.384081
5.371271
5.302096
5.107380
5.153497
5.161183
5.229077
5.052296
5.059982
5.162464
5.045891
5.130439
5.104818
5.211143
5.263665
5.302096
5.482720
5.391768
5.464786
5.455819
5.555738
5.539085
5.489125
5.554457
5.487844
5.468629
5.492968
5.405859
5.400734
5.464786
5.451975
5.343089
5.326435
5.339245
5.358461
5.295691
5.303377
5.340527
5.381519
5.404578
5.458381
5.533961
5.567267
5.617228
5.601855
5.572392
5.668468
5.659501
5.563425
5.674873
5.541647
5.551895
5.512184
5.477596
5.473753
5.445570
5.507060
5.449413
5.314906
5.443008
5.460943
5.582640
5.578797
5.434041
5.498092
5.581359
5.491687
5.487844
5.358461
5.478877
5.600574
5.814505
5.915706
5.997691
5.951149
5.897346
5.960116
5.961398
5.952430
5.916562
5.803832
5.655233
5.684697
5.632175
5.601430
5.552752
5.537379
5.556594
5.592463
5.603992
5.519445
5.481014
5.477171
5.511759
5.706474
5.707755
5.689821
5.797427
5.707755
5.560438
5.788460
5.799989
5.698788
5.646266
5.678292
5.534817
5.483576
5.434897
5.449413
5.482720
5.535242
5.591607
5.678716
5.818348
5.858059
5.895209
5.888804
5.826034
5.613384
5.736362
5.923392
5.817067
5.887523
5.818348
5.749173
5.818348
5.840125
5.902895
5.924673
5.914424
5.914424
5.918268
5.959260
6.033135
6.080533
6.056193
6.038259
5.684697
5.702631
5.976770
5.894784
5.761558
5.679573
5.666762
5.678292
5.666762
5.620646
5.621927
5.575810
5.541222
5.481014
5.463080
5.415682
5.510902
5.400734
5.532680
5.622352
5.521151
5.444289
5.467348
5.505778
5.574954
5.609541
5.555738
5.582640
5.722271
5.733800
5.883680
5.931078
5.936202
5.931934
5.915281
5.847386
5.698788
5.571967
5.504073
5.429773
5.378957
5.344369
5.296972
5.340527
5.312344
5.299534
5.323873
5.341807
5.396892
5.464786
5.527556
5.606979
5.663344
5.692808
5.708180
5.706899
5.699213
5.690246
5.667187
5.639005
5.615946
5.596731
5.581359
5.553176
5.532680
5.521151
5.503216
5.485282
5.476315
5.473753
5.460943
5.454537
5.463505
5.460943
5.446851
5.449413
5.451975
5.451975
5.454537
5.457099
5.463505
5.463505
5.471191
5.477596
5.481439
5.690246
5.736362
5.591607
5.490406
5.485282
5.459661
5.598012
5.679997
5.485282
5.495530
5.505778
5.558300
5.694088
5.774793
5.691526
5.623632
5.640285
5.669749
5.677435
5.686402
5.683840
5.691526
5.691526
5.688964
5.697932
5.697932
5.691526
5.690246
5.690246
5.690246
5.691526
5.703056
5.715866
5.741487
5.797852
5.829877
5.855497
5.867027
5.870870
5.863183
5.856779
5.847811
5.837563
5.849092
5.835001
5.819629
5.810662
5.806818
5.786322
5.777355
5.761983
5.755578
5.751735
5.750453
5.753016
5.745329
5.742767
5.738925
5.738925
5.728676
5.727395
5.737643
5.744049
5.737643
5.746611
5.767107
5.767107
5.761983
5.765826
5.768388
5.783760
5.772231
5.773512
5.772231
5.777355
5.785041
5.790165
5.791446
5.790165
5.788884
5.811943
5.813224
5.810662
5.800414
5.804256
5.785041
5.774793
5.783760
5.785041
5.788884
5.776074
5.782479
5.785041
5.781198
5.785041
5.782479
5.773512
5.782479
5.786322
5.782479
5.781198
5.769669
5.769669
5.758140
5.764545
5.774793
5.776074
5.790165
5.797852
5.801694
5.805538
5.810662
5.811943
5.817067
5.815786
5.815786
5.826034
5.826034
5.827315
5.831158
5.836282
5.831158
5.835001
5.845249
5.854217
5.843968
5.843968
5.843968
5.852935
5.852935
5.856779
5.865746
5.869589
5.869589
5.879837
5.881118
5.881118
5.890085
5.891366
5.893928
5.906738
5.908020
5.915706
5.932359
5.947306
5.952430
5.967803
5.976770
5.983175
5.988299
5.995985
5.995985
6.010077
6.010077
6.006233
5.997266
5.990861
5.990861
5.989580
5.979332
6.001109
5.992142
5.989580
5.987018
5.994704
6.001109
6.013919
6.010077
6.013919
6.025449
6.034416
6.034416
6.036978
6.044664
6.043383
6.028011
6.010077
6.006233
6.010077
6.013919
6.013919
6.006233
6.042102
6.122807
6.212478
6.111277
6.150989
6.263719
6.291902
6.373887
6.452029
6.369487
6.251633
6.232418
6.269567
6.232418
6.106877
6.202954
6.346429
6.178615
6.209359
6.158118
6.424571
6.441225
6.210640
6.357958
6.437381
6.456597
6.473250
6.465564
6.521929
6.592385
6.536020
6.254195
6.223451
6.457878
6.398951
6.227293
6.338743
6.397670
6.176053
6.124812
6.138903
6.133779
6.142746
6.147870
6.154275
6.149151
6.168366
6.161962
6.165804
6.163242
6.164524
6.174772
6.176053
6.176053
6.186301
6.179896
6.181177
6.183739
6.208078
6.208078
6.196549
6.197830
6.197830
6.197830
6.197830
6.192706
6.196549
6.202954
6.201673
6.215765
6.223451
6.206797
6.199111
6.196549
6.199111
6.202954
6.210640
6.202954
6.209359
6.204235
6.210640
6.208078
6.213202
6.217045
6.222169
6.224731
6.226013
6.227293
6.232418
6.234980
6.237542
6.241385
6.242666
6.243947
6.247790
6.254195
6.250352
6.249071
6.254195
6.258038
6.254195
6.270848
6.268286
6.283659
6.272130
6.270848
6.274692
6.282378
6.279816
6.282378
6.284940
6.291345
6.300312
6.291345
6.300312
6.297750
6.305436
6.299031
6.299031
6.302874
6.304155
6.305436
6.318246
6.310560
6.302874
6.296469
6.301593
6.318246
6.292626
6.304155
6.307998
6.324651
6.357958
6.351553
6.360520
6.370768
6.386140
6.423290
6.579575
6.579575
6.606476
6.626973
6.637221
6.641064
6.647469
6.646188
6.646188
6.653874
6.652593
6.669246
6.717925
6.696148
6.643626
6.646188
6.667965
6.711520
6.744827
6.785820
6.834498
6.776852
6.732017
6.714082
6.907516
6.939542
6.710934
6.618701
6.645602
6.657131
6.630230
6.666099
6.704529
6.740397
6.762175
6.805730
6.815978
6.832631
6.835193
6.840317
6.850565
6.844161
6.888996
6.858252
6.882591
7.000445
7.201566
7.296361
7.392438
7.438555
7.460198
7.442264
7.333377
7.298789
7.265482
7.180935
7.104074
7.228333
7.462760
7.201431
6.956756
6.867085
6.799325
6.758332
6.728868
6.689157
6.659693
6.731431
6.763456
6.810854
6.851847
6.853127
6.844161
6.810854
6.824945
6.832631
6.839036
6.841599
6.827507
6.813416
6.836474
6.856971
6.914617
7.006850
7.096522
7.147763
7.174664
7.202847
7.218219
7.233592
7.246402
7.237434
7.223343
7.160573
7.076025
6.986354
7.070901
6.936394
6.836474
6.824945
6.712215
6.823664
6.831350
6.872343
6.876186
6.865938
6.862095
6.855690
6.862095
6.849285
6.853127
6.853127
6.796762
6.675066
6.639197
6.595642
6.677628
6.862095
6.655850
6.480350
6.467540
6.678909
6.559773
6.390678
6.274692
6.489903
6.470688
6.311841
6.265724
6.267005
6.347710
6.334899
6.452754
6.419447
6.404075
6.436100
6.418166
6.393826
6.489903
6.646188
6.665403
6.638502
6.601352
6.601352
6.612881
6.610319
6.600071
6.591104
6.588542
6.579575
6.577013
6.580856
6.624411
6.715363
6.683338
6.642345
6.644907
6.605195
6.579575
6.588542
6.665403
6.653874
6.446349
6.351553
6.384860
6.378454
6.529615
6.594947
6.623129
6.699991
6.582137
6.438663
6.430976
6.272130
6.505275
6.644907
6.591104
6.491184
6.415604
6.404075
6.422009
6.405356
6.396389
6.443787
6.505275
6.518085
6.524491
6.512961
6.486060
6.379735
6.369487
6.452754
6.520648
6.583418
6.601352
6.588542
6.603914
6.588542
6.602633
6.612881
6.610319
6.620567
6.603914
6.602633
6.610319
6.616724
6.633378
6.651312
6.616724
6.603914
6.601352
6.596228
6.587261
6.624411
6.611600
6.610319
6.591104
6.630816
6.625691
6.619287
6.601352
6.647469
6.678214
6.557797
6.411761
6.352834
6.305436
6.423290
6.509119
6.459159
6.365644
6.314403
6.195268
6.196549
6.177334
6.155556
6.149151
6.151713
6.219607
6.229856
6.260600
6.249071
6.263162
6.200392
6.163242
6.126093
6.299031
6.351553
6.429695
6.469407
6.479655
6.491184
6.493746
6.487341
6.482217
6.457878
6.457878
6.466845
6.474531
6.450191
6.437381
6.423290
6.430976
6.413042
6.400232
6.379735
6.355396
6.373330
6.363082
6.365644
6.352834
6.318246
6.305436
6.306717
6.309279
6.305436
6.300312
6.288783
6.264443
6.231137
6.229856
6.220889
6.222169
6.222169
6.219607
6.196549
6.204235
6.192706
6.249071
6.208078
6.152994
6.159400
6.161962
6.160680
6.155556
6.154275
6.163242
6.155556
6.167086
6.178615
6.159400
6.127374
6.126093
6.129936
6.137622
6.146589
6.154275
6.199111
6.231137
6.287502
6.242666
6.026173
5.862202
5.785898
5.821766
5.844824
5.848668
5.853792
5.855072
5.864040
5.820485
5.798708
5.782054
5.767963
5.760277
5.767963
5.733376
5.693664
5.671886
5.641142
5.623208
5.603992
5.586058
5.551470
5.527131
5.528412
5.541222
5.571967
5.611679
5.618083
5.584777
5.598868
5.607835
5.867883
6.079252
6.222726
6.252190
6.250909
6.239379
6.227850
6.238099
6.240661
6.243223
6.257314
6.268843
6.245785
6.153551
6.159956
6.157394
6.166361
6.152270
6.126649
6.111277
6.113839
6.094624
5.820485
5.712879
5.746186
5.767963
5.974208
5.976770
5.935777
5.920405
5.908875
5.914000
5.902471
5.910157
6.022887
6.075408
5.980613
6.033135
6.020325
6.011357
5.990861
6.004952
6.028011
6.013919
6.016481
6.008795
5.980613
5.963960
5.965240
5.951149
5.858916
5.998547
5.983175
6.035697
5.874288
5.901189
5.997266
6.088219
6.101029
6.067722
6.057474
6.033135
6.019043
6.015201
6.021605
6.020325
6.025449
6.031854
6.104872
6.075408
6.038259
6.010077
5.988299
5.984456
5.990861
5.983175
5.963960
5.875569
5.679573
5.725689
5.782054
5.757715
5.769244
5.834576
5.865321
5.897346
5.871726
5.884536
5.961398
6.086938
6.226569
6.340580
6.430252
6.504551
6.574450
6.623129
6.629535
6.580856
6.551392
6.542425
6.486060
6.402794
6.268286
6.122250
6.205516
6.305436
6.364363
6.382298
6.398951
6.469407
6.538582
6.598790
6.655155
6.692305
6.697429
6.705115
6.702553
6.675652
6.624411
6.593666
6.560359
6.507837
6.465564
6.424571
6.381016
6.347710
6.249071
6.234980
6.206797
6.164524
6.152994
6.186301
6.228575
6.279816
6.333619
6.441225
6.498870
6.580856
6.621849
6.647469
6.646188
6.652593
6.630816
6.597509
6.568046
6.537301
6.501432
6.452754
6.419447
6.382298
6.351553
6.305436
6.274692
6.256757
6.245228
6.220889
6.195268
6.190144
6.185020
6.195268
6.204235
6.226013
6.247790
6.259319
6.264443
6.310560
6.306717
6.288783
6.268286
6.300312
6.370768
6.461721
6.557797
6.643626
6.694867
6.698710
6.696148
6.696148
6.667965
6.591104
6.520648
6.448911
6.370768
6.295188
6.240104
6.213202
6.178615
6.146589
6.119688
6.100472
6.086381
6.067166
6.053074
6.074852
6.072290
6.067166
6.060760
6.064604
6.060760
6.056918
6.051794
6.042826
6.042826
6.041545
6.027454
6.027454
6.033859
6.018487
6.049232
6.036421
6.028735
6.028735
6.031297
6.024892
6.014644
6.004395
6.003115
6.001833
5.986461
5.976213
5.974932
5.977494
5.951874
5.882699
5.848668
5.847386
5.857635
5.885817
5.928091
5.987018
6.052350
6.109996
6.159956
6.229131
6.263719
6.303431
6.282934
6.359796
6.463558
6.552673
6.560359
6.509119
6.465564
6.423290
6.398951
6.439943
6.411761
6.451473
6.468126
6.506557
6.503994
6.520648
6.623129
6.728173
6.837060
6.911360
6.943385
7.018380
7.059372
7.031190
6.999164
6.970982
6.946642
6.883872
6.826226
6.762175
6.705810
6.594361
6.571303
6.521343
6.476507
6.452168
6.427828
6.299031
6.290064
6.379735
6.361801
6.331057
6.328495
6.311841
6.282378
6.273410
6.269567
6.259319
6.250352
6.247790
6.258038
6.282378
6.300312
6.345148
6.372049
6.395108
6.393826
6.386140
6.382298
6.374611
6.356677
6.366925
6.332337
6.302874
6.300312
6.270848
6.252914
6.296469
6.272130
6.270848
6.268286
6.254195
6.250352
6.296469
6.372049
6.336181
6.223451
6.126093
6.100472
6.083819
6.079976
6.060760
6.023611
5.995429
5.963403
5.962122
5.950593
5.907038
5.897346
5.892222
5.838419
5.814080
5.826890
5.985737
6.150989
6.258595
6.295744
6.334175
6.346985
6.346985
6.357234
6.336737
6.300869
6.261157
6.272686
6.282934
6.230412
6.316241
6.358515
6.355953
6.362358
6.379011
6.381573
6.375168
6.334175
6.346985
6.382854
6.431533
6.521929
6.541144
6.556516
6.606476
6.618005
6.603914
6.584699
6.571888
6.539863
6.518085
6.480936
6.442505
6.416885
6.395108
6.373330
6.354115
6.351553
6.352834
6.355396
6.340024
6.324651
6.315684
6.299031
6.295188
6.152994
6.013363
6.010801
6.027454
6.154275
6.219607
6.222169
6.282378
6.288783
6.240104
6.305436
6.365644
6.455316
6.489903
6.498870
6.487341
6.488622
6.515523
6.555235
6.552673
6.487341
6.480936
6.512961
6.530896
6.437381
6.466845
6.497589
6.463002
6.436100
6.452754
6.396389
6.364363
6.373330
6.354115
6.332337
6.368206
6.381016
6.391264
6.361801
6.378454
6.348991
6.347710
6.338743
6.328495
6.316965
6.310560
6.302874
6.302874
6.291345
6.286221
6.123531
5.933939
6.152270
6.217602
6.234255
6.232975
6.234255
6.218883
6.179172
6.152270
6.135617
6.112558
6.103591
6.090781
6.075408
6.069004
6.057474
6.060036
6.080533
6.117682
6.121525
6.140741
6.138179
6.143303
6.134336
6.122807
6.125369
6.113839
6.129211
6.125369
6.122807
6.109996
6.099748
6.095905
6.086938
6.092062
6.083095
6.074128
6.076690
6.075408
6.103591
6.144584
6.208635
6.203511
6.157394
6.234255
6.304712
6.396945
6.471244
6.625691
6.706396
6.684618
6.771728
6.805035
6.858838
6.920327
6.920327
6.940823
7.009412
6.985073
6.956891
6.967139
6.922303
6.865938
6.780109
6.735273
6.703248
6.689157
6.658412
6.635354
6.613576
6.581551
6.566179
6.513657
6.447043
6.448325
6.454730
6.456011
6.449605
6.423985
6.441225
6.464283
6.470688
6.461721
6.515523
6.529615
6.552673
6.597509
6.582137
6.577013
6.569326
6.582137
6.597509
6.614162
6.671808
6.658998
6.648750
6.620567
6.587261
6.506557
6.491184
6.377173
6.332337
6.340024
6.274692
6.282378
6.292626
6.296469
6.301593
6.329775
6.318246
6.340024
6.320808
6.337461
6.375892
6.384860
6.477093
6.450191
6.442505
6.428414
6.430976
6.419447
6.407918
6.393826
6.387422
6.375892
6.352834
6.302874
6.284940
6.275972
6.269567
6.247790
6.201673
6.112001
6.120969
6.246509
6.190144
6.126093
6.051794
6.017206
6.097910
6.161962
6.232418
6.329775
6.327213
6.305436
6.283659
6.256757
6.246509
6.240104
6.173491
6.085100
5.990304
5.932658
5.934496
5.931934
5.914000
