1532335521.000000
1.000000
100.00
75.50
70.00
67.50
65.80
68.67
69.71
68.88
68.22
67.70
67.27
67.00
66.92
67.00
67.33
67.81
68.29
68.50
68.58
68.60
67.81
67.09
66.48
65.96
65.52
65.15
64.74
64.36
63.97
63.57
63.13
62.75
62.42
62.12
61.83
61.58
61.35
61.16
61.10
61.05
60.95
60.81
60.70
60.64
60.60
60.59
60.60
60.62
60.65
60.66
60.65
60.65
60.62
60.63
60.64
60.66
60.68
60.69
60.68
60.63
59.92
60.02
59.97
59.90
59.85
59.40
59.07
58.95
58.85
58.75
58.67
58.55
58.42
58.27
58.07
57.82
57.55
57.37
57.23
57.12
57.28
57.43
57.57
57.67
57.73
57.77
57.83
57.88
57.98
58.12
58.23
58.33
58.40
58.47
58.52
58.53
58.55
58.58
58.53
58.48
58.48
58.53
58.57
58.57
58.53
58.48
58.42
58.33
58.23
58.48
58.73
58.97
59.22
59.43
59.65
59.83
60.00
60.17
60.33
60.60
60.88
61.17
61.45
61.80
62.13
62.45
62.77
63.07
63.33
63.60
63.73
64.07
64.35
64.60
65.00
65.42
65.87
66.37
66.78
67.25
67.72
68.20
68.68
69.18
69.70
70.22
70.73
71.27
71.72
72.15
72.58
72.98
73.37
73.83
74.30
74.93
75.63
76.22
76.78
77.28
77.70
78.10
78.48
78.60
78.75
78.90
79.03
79.15
79.28
79.05
78.83
78.60
78.37
78.12
77.85
77.60
77.35
77.10
76.85
76.52
76.17
75.82
75.47
75.05
74.65
74.25
73.85
73.47
73.07
72.67
72.37
71.88
71.43
71.00
70.40
69.78
69.13
68.42
67.77
67.08
66.40
65.70
65.00
64.30
63.60
62.90
62.20
61.50
60.83
60.17
59.55
58.97
58.42
57.80
57.20
56.45
55.63
54.90
54.18
53.53
52.95
52.37
51.80
51.50
51.17
50.83
50.52
50.22
49.92
49.65
49.38
49.13
48.88
48.65
48.43
48.22
48.02
47.87
47.75
47.67
47.60
47.53
47.48
47.43
47.38
47.37
47.33
47.28
47.27
47.23
47.22
47.18
47.15
47.12
47.07
47.02
46.97
46.88
46.82
46.72
46.62
46.53
46.47
46.40
46.33
46.28
46.25
46.22
46.20
46.18
46.15
46.10
46.05
45.98
45.92
45.85
45.77
45.70
45.65
45.60
45.57
45.53
45.52
45.52
45.53
45.55
45.57
45.60
45.63
45.67
45.70
45.73
45.77
45.80
45.82
45.83
45.85
45.85
45.83
45.80
45.77
45.73
45.72
45.70
45.70
45.68
45.68
45.68
45.68
45.70
45.72
45.73
45.75
45.75
45.77
45.78
45.80
45.85
45.88
45.95
46.02
46.10
46.18
46.27
46.35
46.45
46.53
46.62
46.68
46.75
46.83
46.92
47.00
47.08
47.15
47.22
47.30
47.37
47.42
47.47
47.50
47.55
47.58
47.60
47.62
47.63
47.65
47.65
47.65
47.65
47.65
47.65
47.67
47.68
47.70
47.72
47.73
47.73
47.73
47.73
47.73
47.73
47.73
47.73
47.72
47.72
47.72
47.73
47.75
47.78
47.82
47.87
47.92
48.00
48.07
48.15
48.23
48.32
48.40
48.47
48.53
48.58
48.62
48.65
48.68
48.70
48.73
48.77
48.82
48.87
48.93
49.02
49.12
49.25
49.40
49.55
49.72
49.88
50.00
50.10
50.18
50.38
50.57
50.75
50.90
51.03
51.15
51.25
51.33
51.42
51.48
51.55
51.62
51.70
51.80
51.92
52.03
52.13
52.25
52.37
52.47
52.53
52.58
52.62
52.67
52.80
52.93
53.05
53.13
53.18
53.25
53.30
53.35
53.38
53.43
53.50
53.62
53.77
53.92
54.07
54.20
54.35
54.48
54.62
54.75
54.83
54.88
54.90
54.92
54.93
54.93
54.93
54.93
54.90
54.87
54.83
54.80
54.77
54.77
54.78
54.82
54.70
54.60
54.48
54.40
54.33
54.28
54.25
54.23
54.22
54.23
54.25
54.27
54.27
54.27
54.25
54.23
54.23
54.22
54.20
54.20
54.23
54.27
54.32
54.35
54.28
54.22
54.17
54.15
54.18
54.20
54.27
54.35
54.43
54.52
54.58
54.60
54.58
54.55
54.50
54.45
54.37
54.30
54.22
54.13
54.12
54.12
54.15
54.18
54.23
54.27
54.30
54.30
54.30
54.30
54.27
54.22
54.17
54.12
54.07
54.02
53.98
53.95
53.95
53.95
53.95
53.97
53.98
54.00
54.02
54.02
54.02
54.02
54.02
54.02
54.00
53.98
53.97
53.97
53.97
53.98
54.02
54.07
54.13
54.22
54.30
54.40
54.50
54.60
54.67
54.72
54.72
54.68
54.65
54.60
54.53
54.47
54.40
54.35
54.32
54.28
54.28
54.28
54.28
54.28
54.27
54.23
54.20
54.17
54.12
54.08
54.03
54.00
53.97
53.93
53.95
53.95
53.95
53.97
53.98
54.00
54.02
54.03
54.03
54.03
54.03
54.03
54.03
54.05
54.08
54.12
54.17
54.22
54.28
54.35
54.42
54.48
54.55
54.58
54.62
54.62
54.60
54.60
54.60
54.60
54.60
54.58
54.57
54.57
54.57
54.57
54.55
54.53
54.50
54.47
54.43
54.40
54.37
54.33
54.30
54.28
54.25
54.22
54.22
54.20
54.20
54.20
54.20
54.20
54.20
54.22
54.25
54.28
54.33
54.40
54.45
54.52
54.60
54.68
54.77
54.85
54.92
54.98
55.03
55.08
55.12
55.13
55.17
55.18
55.18
55.17
55.13
55.08
54.95
54.80
54.72
54.65
54.58
54.57
54.57
54.62
54.63
54.62
54.57
54.48
54.38
54.27
54.15
54.03
53.92
53.82
53.77
53.73
53.73
53.75
53.77
53.78
53.82
53.87
53.92
53.97
54.02
54.07
54.10
54.17
54.22
54.30
54.38
54.45
54.52
54.58
54.65
54.73
54.80
54.83
54.88
54.92
54.93
54.95
54.97
54.97
54.98
55.00
55.03
55.07
55.12
55.17
55.20
55.23
55.27
55.32
55.37
55.42
55.53
55.67
55.75
55.82
55.88
55.93
55.97
55.97
56.00
56.03
56.08
56.15
56.23
56.32
56.40
56.45
56.47
56.47
56.43
56.40
56.35
56.25
56.27
56.37
56.45
56.50
56.55
56.62
56.67
56.70
56.73
56.75
56.75
56.72
56.68
56.67
56.63
56.57
56.48
56.38
56.25
56.13
56.00
55.87
55.72
55.57
55.42
55.30
55.18
55.07
54.95
54.85
54.78
54.73
54.68
54.82
54.87
54.93
55.17
55.45
55.77
56.05
56.32
56.50
56.67
56.93
57.18
57.43
57.67
57.87
58.72
59.55
60.40
61.30
62.20
63.13
64.10
65.08
66.07
67.02
67.93
68.95
69.85
70.68
71.58
72.55
73.55
74.52
75.52
76.52
77.53
78.68
79.83
80.95
82.03
83.12
84.27
85.45
86.52
87.58
88.68
89.82
90.90
91.98
93.05
94.05
95.03
96.02
97.02
97.98
98.97
99.90
100.82
101.70
102.62
103.37
104.18
104.97
105.60
106.17
106.70
107.27
107.85
108.50
109.25
109.80
110.52
111.33
112.18
113.08
113.28
113.55
113.78
113.95
114.13
114.27
114.50
114.40
114.33
114.30
114.28
114.20
114.12
114.03
113.92
113.75
113.57
113.40
113.17
112.97
112.67
112.30
111.93
111.62
111.35
111.08
110.78
110.48
110.32
110.12
109.85
109.30
108.80
108.35
107.85
107.37
106.85
106.30
105.75
105.23
104.68
104.13
103.57
103.03
102.50
101.92
101.38
100.93
100.50
100.08
99.65
99.23
98.82
98.42
97.97
97.65
97.15
96.53
95.88
95.20
94.58
93.90
93.12
92.37
91.60
90.87
90.03
89.53
89.02
88.53
88.03
87.55
87.07
86.57
86.03
85.53
84.98
84.43
83.92
83.57
83.30
82.98
82.72
82.48
82.23
81.97
81.68
81.42
81.13
80.88
80.73
80.88
81.05
81.18
81.38
81.80
82.27
82.78
83.30
83.85
84.32
85.07
85.82
86.57
87.28
88.03
88.73
89.35
89.95
90.55
91.15
91.73
92.33
92.97
93.57
94.12
94.70
95.30
95.92
96.57
97.18
97.82
98.57
99.33
100.08
100.82
101.55
102.28
103.03
103.70
104.35
104.97
105.58
106.20
106.82
107.42
108.12
108.83
109.55
110.12
110.68
111.23
111.73
112.18
112.63
113.12
113.62
114.10
114.60
115.08
115.55
116.00
116.43
116.83
117.27
117.55
117.83
118.10
118.38
118.58
118.90
118.93
119.02
119.08
119.20
119.32
119.43
119.57
119.67
119.78
119.83
119.97
119.95
119.95
119.92
119.88
119.83
119.77
119.72
119.50
119.28
119.05
118.80
118.53
118.27
118.00
117.73
117.47
117.20
116.93
116.70
116.48
116.25
116.00
115.72
115.40
115.03
114.65
114.27
113.85
113.43
113.03
112.60
112.18
111.77
111.33
110.85
110.35
109.85
109.37
108.88
108.37
107.82
107.32
106.82
106.32
105.80
105.27
104.70
104.22
103.72
103.30
102.78
102.30
101.77
101.23
100.68
100.13
99.58
99.05
98.57
98.02
97.58
97.12
96.68
96.25
95.83
95.40
94.95
94.65
94.37
94.15
93.93
93.68
93.45
93.23
92.87
92.48
92.10
91.77
91.43
91.12
90.83
90.55
90.35
90.13
89.90
89.67
89.45
89.27
89.02
88.75
88.55
88.35
88.15
87.95
87.80
87.65
87.50
87.35
87.22
87.05
86.92
86.73
86.50
86.27
85.98
85.60
85.25
84.87
84.47
83.98
83.57
83.12
82.65
82.18
81.77
81.35
80.93
80.58
80.27
79.87
79.47
79.07
78.68
78.30
77.92
77.67
77.40
77.08
76.82
76.50
76.20
75.93
75.58
75.25
75.12
74.98
74.88
74.78
74.67
74.58
74.48
74.42
74.37
74.35
74.33
74.32
74.28
74.18
74.12
74.10
74.03
73.93
73.85
73.73
73.63
73.53
73.43
73.33
73.18
73.07
72.95
72.87
72.78
72.65
72.62
72.70
72.87
73.05
73.20
73.37
73.50
73.65
73.80
73.92
73.98
73.95
73.97
73.92
73.88
74.18
74.50
74.97
75.42
75.95
76.45
76.87
77.32
77.83
78.32
78.77
79.20
79.63
80.17
80.72
81.25
81.82
82.33
82.93
83.57
84.17
84.73
85.30
85.77
86.22
86.67
87.10
87.47
87.90
88.37
88.78
89.22
89.70
90.18
90.72
91.22
91.72
92.23
92.75
93.30
93.87
94.43
95.02
95.63
96.28
96.90
97.50
97.97
98.43
98.95
99.47
99.98
100.48
100.98
101.53
102.12
102.82
103.43
104.03
104.62
104.92
105.18
105.23
105.30
105.32
105.38
105.43
105.48
105.55
105.62
105.72
105.82
105.93
106.02
106.07
106.07
106.05
106.03
105.93
105.83
105.73
105.63
105.55
105.50
105.47
105.43
105.42
105.48
105.50
105.52
105.53
105.55
105.57
105.58
105.60
105.55
105.58
105.58
105.55
105.50
105.43
105.33
105.25
105.20
105.15
105.05
104.97
104.92
104.82
104.73
104.67
104.60
104.55
104.53
104.50
104.47
104.42
104.42
104.38
104.35
104.35
104.38
104.45
104.50
104.52
104.45
104.38
104.27
104.12
103.95
103.83
103.75
103.67
103.68
103.68
103.75
103.80
103.95
104.13
104.27
104.13
104.03
103.90
103.77
103.63
103.50
103.37
103.25
103.17
103.08
103.00
102.78
102.53
102.27
102.00
101.80
101.47
101.22
101.08
100.97
100.85
100.75
100.65
100.28
99.88
99.52
99.13
98.68
98.25
97.78
97.32
96.85
96.25
95.65
95.03
94.40
93.77
93.13
92.70
92.22
91.95
91.67
91.42
91.13
90.83
90.60
90.32
90.07
89.80
89.55
89.25
88.93
88.58
88.13
87.68
87.18
86.70
86.05
85.27
84.60
84.22
83.82
83.42
83.00
82.52
82.02
81.48
81.12
80.75
80.38
80.02
79.78
79.55
79.25
78.93
78.60
78.32
77.93
77.58
77.22
76.82
76.47
76.10
76.00
75.82
75.65
75.45
75.30
75.18
75.07
74.92
74.78
74.75
74.70
74.98
75.32
75.65
75.98
76.13
76.40
76.43
76.47
76.43
76.42
76.42
76.42
76.38
76.35
76.28
76.18
76.08
75.97
75.83
75.72
75.63
75.53
75.43
75.43
75.53
75.63
75.73
75.83
75.88
76.13
76.45
76.80
77.18
77.40
77.62
77.83
78.12
78.38
78.77
79.20
79.62
79.98
80.32
80.75
81.00
81.22
81.50
81.87
82.18
82.48
82.85
83.17
83.53
83.88
84.23
84.63
85.07
85.50
85.97
86.43
86.57
86.65
86.70
86.73
86.78
86.60
86.47
86.35
86.28
86.23
86.23
86.23
86.28
86.37
86.52
86.67
86.90
87.27
87.53
87.77
88.00
88.23
88.47
88.65
88.83
88.98
89.13
89.32
89.55
89.60
89.63
89.65
89.68
89.70
89.73
89.80
89.78
89.83
89.82
89.77
89.72
89.75
89.80
89.77
89.78
89.82
89.82
89.65
89.52
89.37
89.25
89.18
89.10
89.02
88.93
88.80
88.67
88.53
88.38
88.22
88.07
87.90
87.75
87.63
87.50
87.48
87.42
87.33
87.23
87.13
86.97
86.68
86.47
86.20
85.92
85.82
85.63
85.33
85.17
84.98
84.82
84.65
84.50
84.32
84.17
83.98
83.77
83.50
83.22
82.93
82.68
82.38
82.05
81.68
81.30
80.87
80.45
80.03
79.68
79.35
78.98
78.58
78.20
77.95
77.72
77.47
77.12
76.80
76.52
76.28
76.07
75.85
75.63
75.42
75.18
74.92
74.67
74.40
74.08
73.88
73.67
73.73
73.83
73.93
74.08
74.30
74.52
74.73
74.97
75.17
75.28
75.58
75.83
76.10
76.37
76.45
76.53
76.53
76.48
76.50
76.42
76.38
76.32
76.28
76.20
76.13
76.07
76.07
76.12
76.22
76.32
76.42
76.50
76.87
77.22
77.57
77.88
78.17
78.35
78.57
78.85
79.15
79.42
79.55
79.80
80.05
80.40
80.77
81.08
81.37
81.63
81.93
82.27
82.65
83.10
83.60
84.03
84.45
84.90
85.25
85.60
85.53
85.45
85.37
85.27
85.13
84.98
84.90
84.78
84.73
84.65
84.50
84.37
84.22
84.00
83.77
83.52
83.42
83.37
83.25
83.22
83.12
83.07
83.05
83.10
83.10
83.13
83.30
83.45
83.50
83.53
83.60
83.68
83.52
83.33
83.13
82.97
82.80
82.63
82.45
82.33
82.22
82.27
82.25
82.13
82.05
81.95
81.85
81.78
81.72
81.68
81.67
81.62
81.53
81.38
81.23
81.17
81.17
81.18
81.18
81.17
81.43
81.82
82.17
82.50
82.87
83.43
83.97
84.53
85.10
85.80
86.47
87.00
87.65
88.30
88.98
89.67
90.28
90.88
91.52
92.15
92.73
93.23
93.73
94.18
94.65
95.05
95.27
95.48
95.62
95.77
95.93
95.95
95.87
95.80
95.73
95.68
95.58
95.50
95.48
95.28
95.08
94.75
94.52
94.27
94.00
93.75
93.55
93.30
93.05
92.78
92.47
92.13
91.82
91.42
91.05
90.63
90.22
89.78
89.43
89.13
88.70
88.15
87.58
86.98
86.33
85.55
84.73
83.92
83.03
82.18
81.35
80.65
79.83
79.08
78.33
77.65
77.55
77.43
77.38
77.30
77.27
77.23
77.07
76.88
76.78
76.72
76.55
76.33
76.23
76.10
75.95
75.95
76.07
76.20
76.43
76.68
76.93
77.17
77.40
77.72
78.07
78.43
78.88
79.42
79.97
80.52
81.17
81.85
82.50
83.15
83.80
84.45
85.08
85.80
86.50
87.18
87.78
88.43
89.03
89.63
90.27
90.90
91.72
92.60
93.48
94.32
95.17
96.03
96.93
97.80
98.40
99.00
99.60
100.22
100.82
101.38
101.37
101.33
101.23
101.18
101.15
101.15
101.22
101.32
101.38
101.52
101.77
102.02
102.27
102.53
102.90
103.30
103.70
104.08
104.42
104.85
105.33
105.83
106.28
106.75
107.20
107.60
107.35
107.05
106.72
106.40
105.97
105.53
105.18
104.83
104.50
104.22
103.97
103.72
103.40
103.10
102.82
102.48
102.18
101.87
101.53
101.18
100.67
100.12
99.60
99.10
98.62
98.12
97.48
96.85
96.50
96.15
95.82
95.45
95.10
94.68
94.25
93.88
93.57
93.23
92.88
92.53
92.22
91.88
91.50
91.12
90.70
90.30
89.88
89.47
88.95
88.67
88.37
88.05
87.72
87.23
86.75
86.23
85.67
85.12
84.57
84.03
84.05
84.03
84.03
84.03
84.02
84.00
83.90
83.77
83.60
83.38
83.17
82.92
82.62
82.37
82.22
82.25
82.25
82.28
82.28
82.30
82.37
82.43
82.50
82.55
82.57
82.42
82.45
82.53
82.62
82.70
82.75
82.87
83.03
83.17
83.35
83.52
83.63
83.75
84.00
84.37
84.73
85.10
85.50
85.87
86.27
86.68
87.15
87.62
88.10
88.37
88.63
88.90
89.22
89.57
89.95
90.32
90.73
91.13
91.50
91.90
92.27
92.63
93.08
93.50
93.92
94.32
94.73
95.18
95.67
96.12
96.48
96.88
97.38
97.83
98.18
98.43
98.88
99.22
99.38
99.62
99.75
99.65
99.52
99.38
99.12
99.00
98.82
98.57
98.30
98.03
97.80
97.52
97.22
96.93
96.62
96.32
96.05
95.77
95.40
94.95
94.55
94.15
93.73
93.27
92.77
92.12
91.47
90.83
90.22
89.53
88.95
88.40
87.83
87.27
86.70
86.18
85.70
85.20
84.70
84.20
83.72
83.23
82.67
82.12
81.58
81.13
80.63
80.13
79.62
79.13
78.70
78.22
77.77
77.33
76.95
76.53
75.92
75.37
75.03
74.62
74.23
74.08
73.97
73.85
73.88
73.93
74.00
74.05
74.12
74.17
74.18
74.17
74.07
74.02
73.97
73.80
73.62
73.45
73.32
73.10
72.88
72.82
72.78
72.80
72.87
73.12
73.35
73.53
73.67
73.82
73.85
73.87
73.85
73.82
73.75
73.67
73.55
73.40
73.25
73.07
72.92
72.75
72.62
72.62
72.57
72.47
72.42
72.37
72.37
72.40
72.38
72.40
72.38
72.35
72.32
72.28
72.25
72.30
72.32
72.38
72.47
72.55
72.65
72.72
72.80
72.82
72.82
72.90
72.92
72.97
73.02
72.93
72.93
73.05
73.08
73.30
73.53
73.77
74.00
74.63
75.30
75.83
76.32
76.78
77.07
77.08
76.87
76.68
76.55
76.43
76.33
76.22
76.10
76.00
75.90
75.75
75.63
75.58
75.57
75.58
75.58
75.60
75.60
75.58
75.57
75.52
75.47
75.43
75.35
75.25
75.18
75.13
75.07
75.02
74.93
74.78
74.62
74.35
74.08
73.78
73.48
73.20
72.90
72.63
72.35
72.13
71.93
71.65
71.42
71.17
70.93
70.90
70.80
70.58
70.45
70.23
70.00
69.75
69.45
68.85
68.18
67.48
67.07
66.70
66.57
66.67
66.98
67.30
67.62
67.93
68.23
68.57
68.87
69.13
69.45
69.82
70.18
70.47
70.73
71.00
71.27
71.53
71.72
71.82
71.98
72.17
72.37
72.55
72.72
72.90
73.15
73.42
73.67
73.90
74.17
74.37
74.62
74.95
75.27
75.60
75.98
76.32
76.63
76.93
77.23
77.55
77.80
78.08
78.35
78.60
78.87
79.10
79.35
79.67
80.02
80.38
80.77
81.17
81.58
81.95
82.32
82.67
82.77
82.83
82.85
82.88
82.97
83.13
83.23
83.33
83.47
83.55
83.67
83.80
83.88
83.95
84.00
84.12
84.18
84.30
84.42
84.55
84.78
84.98
85.13
85.30
85.48
85.70
85.90
86.10
86.25
86.48
86.75
87.02
87.28
87.67
88.05
88.37
88.72
89.08
89.47
89.90
90.37
90.87
91.38
91.92
92.52
93.12
93.73
94.37
95.00
95.63
96.28
96.88
97.45
98.02
98.60
99.20
99.78
100.38
100.98
101.63
102.28
102.90
103.48
104.05
104.60
105.08
105.63
106.18
106.77
107.40
108.03
108.70
109.33
109.98
110.62
111.22
111.85
112.40
112.93
113.43
113.92
114.38
114.85
115.30
115.72
116.08
116.48
116.87
117.25
117.53
117.82
118.10
118.35
118.58
118.75
118.93
119.08
119.20
119.27
119.32
119.35
119.37
119.38
119.33
119.28
119.25
119.22
119.18
119.13
119.08
119.02
118.95
118.90
118.82
118.72
118.57
118.43
118.30
118.17
118.00
117.80
117.60
117.42
117.22
117.00
116.77
116.53
116.32
116.07
115.78
115.52
115.22
114.93
114.65
114.35
114.07
113.78
113.48
113.20
112.93
112.68
112.45
112.23
112.02
111.82
111.63
111.45
111.25
111.05
110.82
110.58
110.37
110.17
109.97
109.82
109.67
109.55
109.43
109.30
109.17
109.02
108.87
108.70
108.57
108.43
108.28
108.13
107.98
107.83
107.68
107.53
107.38
107.25
107.15
107.03
106.93
106.80
106.68
106.57
106.47
106.38
106.32
106.28
106.28
106.30
106.35
106.40
106.42
106.42
106.47
106.47
106.40
106.35
106.28
106.22
106.15
106.10
106.10
105.98
105.88
105.75
105.60
105.42
105.23
105.07
104.82
104.58
104.40
104.27
104.25
104.28
104.37
104.47
104.53
104.55
104.75
105.05
105.33
105.60
106.02
106.42
106.80
107.18
107.57
107.95
108.33
108.73
109.13
109.53
109.93
110.32
110.68
111.02
111.33
111.67
112.02
112.40
112.80
113.23
113.68
114.17
114.67
115.13
115.60
116.07
116.50
116.92
117.33
117.75
118.12
118.52
118.98
119.45
119.93
120.43
120.95
121.48
122.02
122.67
123.32
123.98
124.67
125.37
126.05
126.70
127.43
128.15
128.82
129.43
129.98
130.48
130.92
131.33
131.77
132.22
132.48
132.65
132.83
133.05
133.12
133.20
133.30
133.40
133.48
133.57
133.63
133.70
133.75
133.82
133.88
133.98
134.10
134.22
134.33
134.43
134.52
134.58
134.62
134.63
134.63
134.60
134.55
134.52
134.47
134.40
134.33
134.25
134.20
134.13
134.08
134.03
133.97
133.90
133.83
133.77
133.68
133.57
133.43
133.28
133.10
132.88
132.67
132.43
132.22
131.98
131.75
131.52
131.30
131.07
130.80
130.52
130.25
129.95
129.67
129.37
129.05
128.70
128.35
127.98
127.60
127.23
126.88
126.48
126.05
125.58
125.12
124.62
124.12
123.58
123.10
122.60
122.08
121.57
121.03
120.52
120.03
119.57
119.13
118.63
118.13
117.65
117.17
116.77
116.37
115.95
115.57
115.18
114.67
114.22
113.77
113.33
112.93
112.55
112.20
111.85
111.48
111.13
110.73
110.35
110.00
109.67
109.33
109.02
108.70
108.40
108.12
107.85
107.50
107.20
106.95
106.72
106.47
106.25
106.03
105.87
105.70
105.58
105.47
105.40
105.37
105.33
105.25
105.20
105.20
105.13
105.12
105.13
105.15
105.20
105.17
105.18
105.20
105.23
105.28
105.32
105.33
105.35
105.35
105.42
105.47
105.52
105.58
105.55
105.52
105.50
105.47
105.43
105.53
105.58
105.63
105.65
105.67
105.67
105.62
105.57
105.53
105.50
105.53
105.55
105.57
105.57
105.58
105.60
105.63
105.63
105.62
105.60
105.70
105.77
105.80
105.82
105.83
105.85
105.85
105.78
105.73
105.68
105.63
105.55
105.45
105.35
105.27
105.22
105.17
105.23
105.28
105.33
105.40
105.48
105.58
105.65
105.73
105.78
105.83
105.88
105.93
105.98
106.02
106.05
106.10
106.13
106.15
106.15
106.13
106.10
106.05
106.02
105.97
105.92
105.87
105.83
105.80
105.77
105.77
105.78
105.82
105.85
105.87
105.90
105.90
105.92
105.90
105.88
105.85
105.85
105.87
105.87
105.85
105.83
105.82
105.82
105.85
105.90
105.97
106.07
106.17
106.25
106.35
106.45
106.55
106.65
106.77
106.87
106.97
107.07
107.17
107.25
107.33
107.40
107.48
107.57
107.62
107.67
107.73
107.80
107.85
107.88
107.93
107.97
107.98
108.00
108.02
108.05
108.10
108.15
108.18
108.23
108.28
108.32
108.37
108.45
108.50
108.57
108.65
108.68
108.72
108.75
108.78
108.80
108.83
108.93
109.02
109.10
109.22
109.33
109.42
109.50
109.55
109.62
109.67
109.75
109.82
109.85
109.88
109.93
109.97
110.00
110.00
110.00
110.02
110.02
110.02
110.03
110.03
110.02
109.98
109.95
109.93
109.90
109.88
109.90
109.98
110.07
110.15
110.23
110.32
110.38
110.43
110.45
110.48
110.50
110.52
110.53
110.55
110.58
110.63
110.65
110.65
110.68
110.67
110.63
110.65
110.65
110.60
110.60
110.58
110.55
110.52
110.48
110.45
110.38
110.37
110.37
110.32
110.30
110.27
110.22
110.18
110.13
110.10
110.05
110.00
109.98
109.95
109.90
109.88
109.85
109.82
109.78
109.73
109.68
109.67
109.65
109.65
109.65
109.65
109.65
109.63
109.62
109.58
109.50
109.38
109.30
109.17
109.05
108.93
108.80
108.67
108.57
108.45
108.37
108.28
108.18
108.05
107.92
107.78
107.72
107.67
107.53
107.40
107.23
107.03
106.68
106.37
106.02
105.70
105.37
105.05
104.68
104.30
103.88
103.43
102.97
102.53
102.10
101.67
101.25
100.85
100.47
100.08
99.70
99.33
99.05
98.75
98.43
98.10
97.78
97.48
97.15
96.80
96.48
96.13
95.77
95.38
94.95
94.48
94.00
93.52
92.98
92.43
91.90
91.37
90.83
90.33
89.82
89.28
88.77
88.15
87.50
87.05
86.60
86.12
85.50
84.90
84.30
83.70
83.23
82.80
82.98
83.25
83.52
83.78
84.53
85.28
86.05
86.78
87.53
88.25
89.00
89.75
90.50
91.23
91.95
91.62
91.25
90.92
90.57
90.18
89.78
89.37
88.93
88.47
87.95
87.50
87.07
86.63
86.22
85.83
85.50
85.20
84.90
84.58
84.27
83.98
83.78
83.58
83.40
83.18
83.05
82.92
82.78
82.78
82.95
83.17
83.33
83.52
83.68
83.98
84.33
84.20
84.03
83.88
83.80
83.80
83.78
83.80
83.65
83.48
82.77
82.00
81.25
80.48
79.37
78.22
77.05
75.88
74.72
73.72
72.77
71.83
70.95
70.10
69.28
69.48
69.60
69.65
69.72
69.77
70.02
70.30
70.60
70.95
71.27
71.50
71.72
71.90
72.05
72.18
72.28
72.37
72.40
72.47
72.52
72.60
72.62
72.67
72.73
72.85
72.95
73.05
73.05
72.92
72.60
72.28
72.17
72.05
71.97
71.85
71.75
71.88
72.03
72.18
72.43
72.58
72.75
72.87
72.92
72.93
72.93
73.12
73.32
73.52
73.78
74.02
74.28
74.60
74.87
75.00
75.15
75.28
75.40
75.47
75.53
75.60
75.75
75.95
76.08
76.23
76.18
76.08
75.95
75.77
75.53
75.35
75.18
75.05
74.92
74.78
74.68
74.57
74.48
74.38
74.30
74.17
74.05
73.93
73.98
74.05
74.15
74.32
74.57
74.83
75.15
75.45
75.63
75.80
75.92
76.10
76.22
76.45
76.65
76.85
77.10
77.97
78.32
78.75
79.22
79.77
80.27
80.50
80.85
81.18
81.47
81.78
82.08
82.20
82.40
82.62
82.75
82.90
83.03
82.82
82.60
82.40
82.20
82.02
81.92
81.83
81.75
81.72
81.70
81.70
81.73
81.77
81.80
81.83
81.88
81.90
81.90
81.92
81.92
81.90
81.87
81.82
81.78
81.88
81.88
81.87
81.75
81.60
81.48
81.35
81.22
81.07
80.82
80.58
80.40
80.13
80.00
79.58
79.22
78.87
78.45
77.43
76.93
76.50
76.08
75.62
75.23
74.97
74.57
74.22
73.97
73.67
73.30
73.05
72.77
72.40
72.08
71.77
71.47
71.62
71.78
71.98
72.23
72.55
72.87
73.15
73.45
73.73
73.98
74.22
74.52
74.78
75.07
75.37
75.68
75.95
76.22
76.37
76.52
76.67
76.83
77.07
77.33
77.50
77.52
77.42
77.38
77.33
77.27
77.30
77.28
77.22
77.22
77.22
77.18
77.20
77.10
77.33
77.98
78.62
79.25
79.87
80.50
80.95
81.37
81.77
82.13
82.32
82.47
82.65
82.75
82.92
83.13
83.15
83.20
83.33
83.45
83.62
83.73
83.78
83.75
83.78
83.73
83.50
83.22
82.97
82.70
82.43
82.20
81.98
81.68
81.37
81.05
80.72
80.37
80.08
79.80
79.63
79.50
79.38
79.25
79.07
78.83
78.57
78.38
78.27
78.33
78.37
78.40
78.32
78.35
78.38
78.38
78.38
78.40
78.58
78.77
78.82
78.52
78.05
77.57
77.12
76.65
76.23
75.85
75.45
75.07
74.70
74.33
73.95
73.82
73.65
73.48
73.55
73.60
73.53
73.52
73.47
73.40
73.35
73.32
73.13
73.00
73.00
73.07
73.15
73.28
73.40
73.48
73.55
73.65
73.80
73.83
73.90
73.97
74.07
74.18
74.32
74.43
74.55
74.70
74.87
75.03
75.18
75.30
75.42
75.33
75.28
75.23
75.23
74.98
74.82
74.67
74.52
74.40
74.08
73.77
73.48
73.12
72.93
72.73
72.53
72.33
72.13
71.93
71.77
71.62
71.63
71.73
71.80
71.58
71.40
71.28
71.20
71.12
71.10
71.03
70.95
71.02
71.33
71.65
71.98
72.28
72.58
72.85
73.03
73.17
73.27
73.43
73.62
73.82
74.03
74.30
74.53
74.80
75.03
75.17
75.28
75.38
75.47
75.57
75.62
75.73
75.92
76.03
76.17
76.37
76.53
76.65
76.72
76.95
77.05
77.15
77.35
77.60
77.78
77.98
78.20
78.32
78.45
78.58
78.82
79.03
79.22
79.40
79.55
79.70
79.82
80.00
80.18
80.42
80.70
80.88
80.98
81.07
81.08
81.12
81.13
81.02
80.52
80.05
79.60
79.17
78.70
78.23
77.83
77.43
77.10
76.72
76.32
75.88
75.42
75.00
74.58
74.13
73.68
73.32
72.95
72.62
72.30
72.13
72.03
71.90
71.63
71.48
71.37
71.20
71.07
70.93
70.83
70.68
70.62
70.55
70.37
70.10
69.85
69.57
69.27
69.05
68.82
68.62
68.32
68.03
67.78
67.55
67.33
67.12
66.90
66.58
66.25
65.90
65.52
65.33
65.22
65.37
65.57
65.80
66.05
66.32
66.75
67.18
67.60
68.07
68.53
68.95
69.40
69.53
69.62
69.72
69.85
70.00
70.15
70.28
70.43
70.63
70.92
71.18
71.28
71.38
71.58
71.53
71.52
71.47
71.55
71.62
71.67
71.73
71.78
71.88
71.97
72.07
72.15
72.25
72.38
72.48
72.62
72.80
73.03
73.27
73.50
73.53
73.55
73.58
73.65
73.73
73.82
73.88
73.98
74.08
74.20
74.28
74.32
74.32
74.30
74.05
73.87
73.67
73.45
73.37
73.37
73.37
73.40
73.42
73.47
73.55
73.60
73.97
74.58
75.18
75.78
76.08
76.40
76.70
77.00
77.08
77.08
77.07
77.20
77.32
77.28
77.32
77.27
77.22
77.13
77.03
76.92
76.78
76.62
76.45
76.28
76.10
75.90
75.70
75.50
75.35
75.22
75.05
74.80
74.57
74.25
74.18
74.13
74.08
74.02
73.93
73.85
73.85
73.80
73.72
73.62
73.55
73.50
73.80
74.10
74.37
74.62
74.85
75.12
75.23
75.22
75.15
74.92
74.63
74.37
73.97
73.60
73.25
72.68
72.13
71.57
71.27
70.92
70.57
70.40
70.40
70.45
70.32
70.22
70.10
70.03
69.95
70.37
70.80
70.72
71.18
71.62
72.03
72.55
73.05
73.47
73.82
74.18
74.53
74.93
75.33
75.82
76.35
76.98
77.55
78.25
78.88
79.52
80.12
80.73
81.30
81.83
82.32
82.80
83.22
83.55
83.88
84.13
84.00
83.88
83.75
83.57
83.38
83.18
83.07
82.97
82.82
82.90
83.00
83.05
83.23
83.47
83.68
83.83
83.98
84.10
84.22
84.27
84.35
84.28
84.23
84.15
84.27
84.35
84.47
84.60
84.75
84.37
83.98
84.25
83.93
83.65
83.35
83.00
82.67
82.57
82.53
82.52
82.50
82.40
82.28
82.05
81.85
81.58
81.33
80.85
80.37
79.87
79.38
78.85
78.37
77.92
77.43
76.98
76.63
76.38
76.13
75.97
75.70
75.40
75.13
74.88
74.63
74.37
74.05
73.73
73.53
73.25
72.97
72.68
72.42
72.07
71.70
71.40
71.07
70.75
70.47
70.30
70.13
69.90
69.63
69.32
69.10
68.88
68.65
68.40
68.15
67.97
68.12
68.12
68.17
68.27
68.42
68.53
68.65
68.52
68.40
68.18
67.97
67.73
67.52
67.32
67.02
66.75
66.52
66.62
66.60
66.62
66.65
66.70
66.75
66.82
66.88
66.98
67.10
67.20
67.32
67.47
67.63
67.78
68.02
68.25
68.48
68.72
68.95
69.17
69.25
69.33
69.43
69.58
69.73
69.83
70.00
70.20
70.43
70.72
71.03
71.33
71.62
72.05
72.48
72.97
73.37
73.78
74.22
74.65
75.02
75.08
74.82
74.55
74.28
73.98
73.65
73.35
73.03
72.82
72.62
72.68
72.75
72.95
73.15
73.40
73.70
73.93
74.15
74.20
74.35
74.47
74.67
74.88
75.03
75.17
75.30
75.43
75.53
75.63
75.68
75.77
75.83
75.93
75.85
75.78
75.72
75.65
75.52
75.40
75.42
75.47
75.47
75.45
75.45
75.50
75.47
75.38
75.65
75.88
76.07
76.28
76.52
76.63
76.78
76.90
77.03
77.18
77.33
77.47
77.67
78.13
78.57
78.97
79.35
79.72
80.05
80.35
80.65
80.92
81.17
81.25
81.35
81.35
81.37
81.33
81.30
81.32
81.35
81.42
81.52
81.65
81.70
81.73
81.85
81.95
82.05
82.13
82.23
82.38
82.57
82.72
82.88
83.07
83.37
83.67
83.98
84.33
84.77
85.18
85.58
85.97
86.40
86.82
87.22
87.60
88.03
88.50
88.60
88.72
88.82
88.88
88.98
89.08
89.17
89.28
89.38
89.48
89.55
89.67
89.78
89.90
90.03
90.20
90.37
90.55
90.80
91.07
91.35
91.68
92.02
92.35
92.68
93.00
93.28
93.58
93.85
94.10
94.35
94.60
94.78
94.92
95.03
95.15
95.23
95.35
95.53
95.67
95.80
95.88
95.95
95.97
95.97
95.93
95.88
95.83
95.77
95.72
95.68
95.67
95.67
95.65
95.62
95.58
95.55
95.52
95.45
95.33
95.23
95.12
95.00
94.92
94.80
94.67
94.57
94.45
94.33
94.17
94.02
93.80
93.57
93.37
93.22
93.07
92.93
92.83
92.72
92.60
92.48
92.33
92.18
92.02
91.85
91.70
91.57
91.43
91.32
91.23
91.17
91.07
91.02
90.98
90.95
90.88
90.82
90.73
90.58
90.47
90.33
90.22
90.07
89.95
89.83
89.75
89.67
89.58
89.52
89.42
89.30
89.18
89.05
88.95
88.85
88.73
88.62
88.52
88.43
88.38
88.35
88.33
88.35
88.35
88.35
88.37
88.33
88.30
88.27
88.23
88.20
88.20
88.22
88.18
88.12
88.07
88.02
87.92
87.83
87.75
87.65
87.57
87.48
87.40
87.30
87.22
87.13
87.05
86.95
86.82
86.67
86.53
86.40
86.27
86.13
86.03
85.93
85.87
85.85
85.83
85.82
85.83
85.88
85.93
86.00
86.03
86.08
86.12
86.17
86.22
86.25
86.30
86.35
86.38
86.42
86.47
86.50
86.52
86.50
86.45
86.38
86.30
86.08
85.88
85.65
85.40
85.17
84.93
84.73
84.52
84.30
84.23
84.20
84.27
84.33
84.38
84.45
84.52
84.57
84.63
84.70
84.75
84.78
84.82
84.88
84.92
84.98
85.02
85.10
85.15
85.23
85.30
85.38
85.50
85.60
85.70
85.82
85.90
85.97
86.02
86.08
86.12
86.20
86.25
86.28
86.32
86.32
86.33
86.35
86.37
86.38
86.38
86.38
86.35
86.32
86.20
86.08
86.00
85.97
86.00
86.02
86.03
86.18
86.35
86.57
86.77
86.95
87.12
87.23
87.40
87.57
87.57
87.55
87.45
87.37
87.30
87.22
87.17
87.08
87.00
86.95
86.90
86.90
86.87
86.80
86.77
86.68
86.67
86.62
86.58
86.53
86.48
86.43
86.42
86.40
86.40
86.35
86.33
86.27
86.20
86.02
85.87
85.65
85.43
85.22
85.02
84.83
84.63
84.42
84.22
84.00
83.80
83.62
83.47
83.35
83.32
83.33
83.35
83.35
83.30
83.25
83.18
83.17
83.07
82.95
82.85
82.77
82.70
82.67
82.65
82.68
82.65
82.58
82.52
82.42
82.17
81.92
81.63
81.38
81.10
80.85
80.62
80.33
80.12
79.93
79.72
79.55
79.30
79.05
78.82
78.62
78.45
78.30
78.08
77.83
77.57
77.30
77.10
76.88
76.63
76.47
76.27
75.98
75.77
75.60
75.43
75.28
75.13
74.97
74.68
74.70
74.70
74.70
74.70
74.68
74.67
74.60
74.55
74.55
74.58
74.65
74.65
74.63
74.70
74.75
74.67
74.58
74.48
74.38
74.23
74.02
73.92
73.83
73.75
73.67
73.72
73.80
73.90
74.00
74.12
74.18
74.28
74.40
74.50
74.58
74.68
74.77
74.90
75.02
75.12
75.18
75.23
75.27
75.32
75.43
75.53
75.73
75.82
75.93
76.08
76.23
76.37
76.60
76.77
76.92
77.07
77.20
77.33
77.48
77.73
77.70
77.68
77.65
77.62
77.55
77.48
77.45
77.42
77.33
77.28
77.20
77.25
77.33
77.37
77.42
77.62
77.87
78.13
78.37
78.58
78.68
78.78
78.88
79.03
79.23
79.42
79.55
79.68
79.83
80.05
80.25
80.43
80.58
80.68
80.90
81.12
81.27
81.42
81.63
81.87
82.03
82.18
82.32
82.45
82.57
82.70
82.77
82.83
82.92
83.02
83.12
83.23
83.37
83.53
83.68
83.85
84.03
84.28
84.52
84.73
84.87
84.98
85.08
85.18
85.28
85.37
85.45
85.50
85.58
85.65
85.72
85.73
85.63
85.62
85.62
85.60
85.55
85.52
85.52
85.57
85.73
85.88
86.05
86.18
86.30
86.43
86.60
86.77
86.93
87.03
87.13
87.22
87.33
87.48
87.48
87.48
87.52
87.55
87.55
87.55
87.60
87.65
87.70
87.77
87.82
87.93
88.05
88.30
88.53
88.70
88.87
89.05
89.18
89.30
89.42
89.50
89.55
89.55
89.57
89.60
89.73
89.87
90.02
90.18
90.40
90.62
90.73
90.82
90.85
90.83
90.83
90.82
90.82
90.73
90.65
90.43
90.20
89.95
89.68
89.42
89.17
88.92
88.65
88.37
88.05
87.77
87.48
87.20
86.90
86.62
86.33
86.05
85.73
85.45
85.20
84.93
84.65
84.33
83.98
83.60
83.23
82.87
82.48
82.10
81.73
81.32
80.90
80.33
79.77
79.33
78.88
78.42
77.97
77.53
77.12
76.70
76.32
75.93
75.55
75.18
74.80
74.43
74.07
73.67
73.25
72.82
72.45
72.13
71.83
71.55
71.25
70.97
70.72
70.47
70.18
70.03
69.87
69.68
69.50
69.32
69.15
68.98
68.83
68.72
68.65
68.58
68.53
68.50
68.47
68.43
68.40
68.35
68.32
68.27
68.22
68.18
68.18
68.22
68.25
68.32
68.35
68.40
68.47
68.50
68.53
68.57
68.62
68.68
68.73
68.70
68.63
68.58
68.52
68.47
68.42
68.38
68.38
68.42
68.47
68.52
68.57
68.62
68.67
68.77
68.85
68.97
69.10
69.22
69.33
69.45
69.58
69.72
69.83
69.97
70.12
70.27
70.47
70.67
70.87
71.07
71.27
71.48
71.68
71.87
72.00
72.08
72.13
72.13
72.05
72.00
71.95
71.92
71.88
71.87
71.85
71.83
71.83
71.85
71.92
71.98
72.10
72.20
72.30
72.40
72.45
72.45
72.43
72.42
72.42
72.42
72.48
72.53
72.63
72.73
72.83
72.95
73.02
73.05
73.03
72.98
72.92
72.83
72.73
72.60
72.50
72.42
72.37
72.32
72.28
72.25
72.22
72.18
72.17
72.17
72.17
72.17
72.13
72.12
72.07
72.00
71.90
71.75
71.62
71.50
71.42
71.35
71.28
71.25
71.30
71.32
71.35
71.40
71.48
71.55
71.63
71.72
71.80
71.88
71.93
71.98
72.02
72.10
72.25
72.43
72.72
73.07
73.42
73.82
74.23
74.62
75.02
75.37
75.65
75.88
76.05
76.22
76.40
76.60
76.85
77.00
77.10
77.18
77.25
77.42
77.60
77.78
77.95
78.15
78.35
78.53
78.70
78.88
79.00
79.15
79.32
79.50
79.68
79.88
80.12
80.38
80.57
80.77
80.95
81.07
81.15
81.18
81.22
81.23
81.25
81.25
81.25
81.23
81.20
81.15
81.08
81.00
80.88
80.75
80.60
80.45
80.30
80.10
79.83
79.60
79.32
79.03
78.78
78.52
78.23
77.98
77.72
77.50
77.33
77.18
77.08
76.97
76.85
76.72
76.53
76.45
76.43
76.45
76.48
76.42
76.30
76.18
76.07
75.90
75.73
75.57
75.43
75.28
75.18
75.03
74.87
74.67
74.45
74.10
73.78
73.47
73.27
73.07
72.87
72.72
72.60
72.53
72.47
72.42
72.37
72.32
72.27
72.22
72.18
72.17
72.17
72.20
72.25
72.28
72.33
72.37
72.37
72.38
72.42
72.40
72.38
72.35
72.32
72.28
72.27
72.25
72.25
72.25
72.25
72.27
72.28
72.30
72.30
72.30
72.32
72.35
72.38
72.40
72.43
72.45
72.45
72.45
72.40
72.35
72.27
72.22
72.10
71.98
71.87
71.75
71.62
71.53
71.45
71.42
71.40
71.37
71.30
71.27
71.23
71.23
71.30
71.35
71.40
71.43
71.48
71.55
71.62
71.68
71.72
71.77
71.80
71.82
71.85
71.90
71.95
72.00
72.07
72.10
72.13
72.15
72.13
72.03
71.93
71.80
71.67
71.53
71.38
71.28
71.18
71.08
70.97
70.85
70.73
70.62
70.53
70.48
70.43
70.38
70.33
70.30
70.27
70.22
70.18
70.15
70.15
70.12
70.10
70.08
70.07
70.07
70.10
70.08
70.12
70.23
70.30
70.40
70.53
70.63
70.75
70.78
70.75
70.73
70.63
70.53
70.63
70.73
70.82
70.90
70.97
70.98
71.00
71.02
71.02
71.02
71.02
71.05
71.10
71.18
71.28
71.43
71.60
71.83
72.03
72.23
72.40
72.47
72.57
72.60
72.62
72.62
72.63
72.63
72.65
72.67
72.65
72.60
72.57
72.53
72.50
72.47
72.47
72.45
72.47
72.50
72.50
72.57
72.67
72.78
72.90
73.02
73.12
73.20
73.23
73.27
73.30
73.33
73.35
73.40
73.38
73.42
73.42
73.38
73.40
73.43
73.23
73.03
72.88
72.75
72.67
72.60
72.52
72.43
72.37
72.32
72.28
72.25
72.23
72.25
72.25
72.20
72.13
72.07
71.98
71.90
71.83
71.87
71.87
71.88
71.92
71.97
72.03
72.12
72.20
72.30
72.38
72.47
72.52
72.55
72.55
72.52
72.45
72.40
72.35
72.30
72.30
72.25
72.20
72.15
72.13
72.10
72.07
72.07
72.12
72.13
72.17
72.17
72.17
72.13
72.15
72.17
72.20
72.27
72.38
72.50
72.63
72.80
72.95
73.08
73.18
73.28
73.38
73.48
73.50
73.48
73.43
73.33
73.20
73.02
72.83
72.68
72.57
72.45
72.35
72.23
72.13
72.03
71.95
71.88
71.82
71.77
71.77
71.77
71.75
71.75
71.77
71.80
71.87
71.95
72.07
72.20
72.30
72.40
72.47
72.55
72.58
72.62
72.65
72.67
72.67
72.67
72.67
72.67
72.63
72.63
72.62
72.60
72.60
72.60
72.62
72.65
72.68
72.73
72.75
72.73
72.72
72.65
72.53
72.40
72.25
72.12
72.00
71.92
71.93
72.00
72.10
72.25
72.43
72.65
72.83
72.98
73.12
73.23
73.33
73.45
73.53
73.62
73.70
73.80
73.92
73.98
74.00
74.03
74.07
74.07
74.07
74.05
74.02
74.02
74.03
74.03
74.07
74.08
74.10
74.10
74.15
74.20
74.27
74.33
74.38
74.43
74.48
74.53
74.57
74.58
74.63
74.70
74.75
74.80
74.82
74.80
74.88
74.95
75.08
75.28
75.50
75.77
76.13
76.52
76.87
77.22
77.53
77.80
78.02
78.25
78.37
78.45
78.53
78.65
78.80
78.93
79.05
79.17
79.30
79.53
79.83
80.15
80.38
80.57
80.82
81.10
81.42
81.70
81.98
82.33
82.75
83.35
84.10
84.82
85.03
85.28
85.60
85.75
85.98
86.17
86.42
86.65
86.58
86.53
86.47
86.40
86.33
86.28
86.25
86.22
86.15
86.08
86.03
85.98
85.95
85.93
85.80
85.67
85.40
85.13
84.85
84.52
84.13
83.75
83.42
83.07
82.75
82.43
82.12
81.73
81.45
81.18
80.90
80.57
80.25
79.98
79.75
79.57
79.38
79.13
78.85
78.57
78.35
78.13
77.83
77.52
77.13
76.77
76.40
75.97
75.47
74.80
73.98
73.17
72.85
72.55
72.23
72.10
71.92
71.80
71.55
71.22
71.17
71.13
71.12
71.08
71.07
71.03
71.02
71.00
70.95
70.88
70.78
70.68
70.57
70.47
70.43
70.43
70.53
70.62
70.72
70.82
70.90
70.97
71.05
71.15
71.25
71.40
71.58
71.78
71.98
72.18
72.37
72.52
72.63
72.72
72.78
72.83
72.90
72.95
72.98
73.02
73.05
73.10
73.15
73.18
73.20
73.22
73.20
73.15
73.10
73.02
72.95
72.93
72.90
72.87
72.80
72.75
72.70
72.65
72.63
72.72
72.80
72.85
72.90
72.95
73.02
73.10
73.17
73.23
73.32
73.37
73.52
73.67
73.82
73.95
74.05
74.12
74.20
74.37
74.48
74.63
74.58
74.57
74.55
74.53
74.50
74.42
74.33
74.28
74.03
73.80
73.60
73.47
73.32
73.22
73.18
73.15
73.10
73.05
73.00
72.93
72.90
72.75
72.63
72.58
72.57
72.52
72.57
72.80
72.97
73.13
73.27
73.33
73.38
73.30
73.25
73.08
72.95
72.85
72.75
72.65
72.55
72.45
72.37
72.28
72.13
71.95
71.75
71.53
71.33
71.17
70.92
70.68
70.50
70.33
70.17
70.00
69.82
69.53
69.28
69.02
68.93
68.82
68.67
68.50
68.32
68.15
67.95
67.72
67.70
67.68
67.67
67.62
67.60
67.58
67.48
67.40
67.30
67.18
67.05
66.92
66.75
66.70
66.62
66.52
66.45
66.42
66.30
66.03
65.83
65.63
65.45
65.30
65.17
65.13
65.10
65.20
65.27
65.28
65.28
65.25
65.17
65.05
64.92
64.80
64.73
64.65
64.60
64.57
64.52
64.47
64.40
64.30
64.17
64.02
63.87
63.70
63.52
63.30
63.13
62.97
63.03
63.13
63.23
63.30
63.38
63.57
63.77
63.97
64.17
64.38
64.63
64.90
65.13
65.32
65.55
65.73
65.98
65.97
65.98
66.03
66.10
66.12
66.13
66.13
66.10
66.07
66.05
66.02
65.97
65.93
65.90
65.88
65.87
65.90
65.88
65.80
65.68
65.57
65.47
65.42
65.43
65.52
65.62
65.72
65.80
65.90
65.98
66.05
66.15
66.27
66.40
66.55
66.70
66.83
66.92
67.02
67.10
67.23
67.32
67.43
67.33
67.28
67.28
67.32
67.35
67.28
67.22
67.12
67.00
66.87
66.68
66.47
66.30
66.13
65.98
65.83
65.65
65.77
65.88
65.95
66.00
66.10
66.25
66.38
66.52
66.65
66.77
66.87
66.98
66.98
67.00
66.98
66.95
66.88
66.85
66.87
66.90
66.92
66.92
66.90
66.90
66.88
66.85
66.85
66.85
66.85
66.87
66.88
66.88
66.85
66.83
66.82
66.77
66.75
66.87
67.03
67.25
67.48
67.77
68.03
68.33
68.58
68.80
69.00
69.20
69.38
69.55
69.88
70.18
70.47
70.75
71.07
71.37
71.70
72.00
72.33
72.68
73.02
73.33
73.68
74.05
74.43
74.78
75.17
75.55
75.92
76.30
76.68
77.05
77.53
78.00
78.48
78.98
79.50
80.02
80.53
81.05
81.57
82.10
82.62
83.10
83.57
84.00
84.42
84.82
85.25
85.65
86.08
86.52
86.98
87.45
87.90
88.43
88.97
89.37
89.70
90.02
90.28
90.37
90.47
90.55
90.60
90.65
90.73
90.83
91.00
91.08
91.07
91.05
91.03
91.00
90.95
90.90
90.70
90.52
90.33
90.12
89.92
89.73
89.53
89.32
89.10
88.87
88.62
88.37
88.12
87.83
87.57
87.32
87.05
86.78
86.50
86.27
86.05
85.83
85.58
85.38
85.23
85.12
85.02
84.93
84.83
84.75
84.65
84.58
84.48
84.40
84.28
84.17
84.03
83.92
83.80
83.60
83.37
83.23
83.07
82.88
82.77
82.77
82.72
82.67
82.62
82.55
82.52
82.48
82.38
82.38
82.33
82.30
82.25
82.22
82.18
82.15
82.27
82.35
82.43
82.52
82.60
82.68
82.75
82.83
82.95
83.12
83.28
83.45
83.63
83.83
84.02
84.17
84.32
84.47
84.60
84.70
84.78
84.85
84.97
85.03
85.07
85.05
85.02
84.93
84.85
84.77
84.68
84.57
84.50
84.45
84.43
84.45
84.48
84.48
84.50
84.53
84.58
84.55
84.55
84.53
84.47
84.42
84.38
84.33
84.30
84.30
84.28
84.25
84.23
84.17
84.10
83.88
83.75
83.62
83.47
83.32
83.17
83.05
82.92
82.80
82.67
82.52
82.42
82.28
82.10
81.85
81.60
81.35
81.10
80.85
80.65
80.48
80.33
80.25
80.18
80.08
79.97
79.88
79.78
79.72
79.63
79.60
79.58
79.58
79.62
79.65
79.72
79.82
79.88
79.97
80.05
80.12
80.17
80.22
80.27
80.32
80.35
80.40
80.47
80.53
80.60
80.67
80.75
80.83
80.92
80.97
81.00
81.03
81.07
81.13
81.20
81.45
81.70
81.93
82.18
82.43
82.63
82.83
83.03
83.22
83.40
83.57
83.70
83.87
84.03
84.25
84.40
84.55
84.72
84.93
85.18
85.43
85.77
86.08
86.40
86.73
87.03
87.28
87.50
87.77
88.05
88.28
88.52
88.63
88.72
88.80
88.83
88.82
88.80
88.73
88.67
88.57
88.48
88.40
88.33
88.33
88.33
88.32
88.28
88.27
88.23
88.13
88.03
87.93
87.85
87.83
87.83
87.85
87.87
87.92
87.98
88.07
88.07
88.07
88.05
88.05
88.08
88.08
88.05
88.00
87.93
87.87
87.78
87.68
87.58
87.38
87.23
87.08
86.90
86.68
86.65
86.63
86.57
86.47
86.35
86.27
86.20
86.13
86.07
85.92
85.75
85.58
85.42
85.42
85.45
85.52
85.58
85.73
85.92
86.13
86.35
86.53
86.67
86.80
86.90
86.87
86.83
86.80
86.78
86.80
86.83
86.95
87.12
87.27
87.40
87.50
87.57
87.63
87.70
87.75
87.80
87.82
87.85
87.92
88.00
88.08
88.17
88.27
88.42
88.58
88.77
88.97
89.18
89.42
89.63
89.92
90.20
90.48
90.78
91.07
91.12
91.13
91.12
91.08
91.05
91.00
90.95
90.90
90.90
90.90
90.92
90.95
91.00
91.02
91.02
91.00
90.98
90.92
90.82
90.70
90.57
90.45
90.40
90.33
90.28
90.28
90.30
90.35
90.40
90.43
90.43
90.40
90.33
90.30
90.28
90.27
90.27
90.28
90.28
90.28
90.27
90.23
90.18
90.12
90.05
89.98
89.90
89.85
89.77
89.70
89.62
89.53
89.45
89.37
89.32
89.27
89.25
89.27
89.27
89.30
89.30
89.30
89.27
89.22
89.18
89.15
89.12
89.13
89.10
89.07
89.03
88.97
88.88
88.80
88.72
88.65
88.58
88.53
88.48
88.45
88.42
88.42
88.38
88.37
88.35
88.38
88.40
88.40
88.40
88.40
88.42
88.45
88.47
88.43
88.40
88.38
88.35
88.32
88.32
88.32
88.33
88.38
88.43
88.47
88.50
88.50
88.52
88.48
88.48
88.43
88.42
88.40
88.37
88.33
88.28
88.23
88.17
88.07
88.00
87.90
87.83
87.80
87.77
87.77
87.78
87.77
87.75
87.72
87.68
87.63
87.60
87.60
87.60
87.62
87.67
87.67
87.68
87.68
87.67
87.63
87.57
87.50
87.42
87.28
87.15
87.00
86.85
86.72
86.60
86.47
86.47
86.50
86.50
86.53
86.55
86.57
86.58
86.60
86.60
86.60
86.60
86.62
86.65
86.68
86.72
86.77
86.80
86.83
86.87
86.92
86.97
87.02
87.08
87.13
87.18
87.25
87.30
87.35
87.37
87.38
87.42
87.43
87.47
87.50
87.53
87.58
87.63
87.68
87.72
87.75
87.78
87.80
87.82
87.83
87.83
87.85
87.88
87.93
87.97
88.02
88.10
88.17
88.27
88.43
88.58
88.75
88.93
89.10
89.25
89.40
89.43
89.42
89.40
89.40
89.40
89.40
89.42
89.42
89.42
89.42
89.42
89.38
89.32
89.27
89.20
89.12
89.05
88.98
88.90
88.83
88.75
88.65
88.55
88.45
88.33
88.22
88.10
88.00
87.93
87.97
87.98
88.00
88.03
88.02
87.95
87.80
87.68
87.50
87.35
87.22
87.07
86.93
86.77
86.62
86.48
86.40
86.30
86.17
86.02
85.78
85.67
85.60
85.55
85.48
85.43
85.52
85.58
85.65
85.67
85.65
85.58
85.43
85.33
85.20
85.03
84.85
84.60
84.40
84.28
84.17
84.15
84.12
84.10
84.10
84.13
84.20
84.27
84.35
84.45
84.57
84.67
84.77
84.87
84.90
84.93
84.97
85.03
85.10
85.17
85.15
85.15
85.15
85.15
85.18
85.25
85.42
85.58
85.80
86.03
86.27
86.50
86.73
86.98
87.18
87.35
87.48
87.62
87.75
87.93
88.18
88.32
88.42
88.48
88.55
88.62
88.53
88.47
88.40
88.38
88.40
88.47
88.63
88.77
88.92
89.10
89.28
89.53
89.73
89.85
89.97
89.98
90.00
90.05
90.08
90.10
90.12
90.17
90.22
90.25
90.27
90.30
90.33
90.37
90.47
90.57
90.63
90.68
90.73
90.75
90.77
90.77
90.78
90.82
90.85
90.88
90.90
90.88
90.87
90.83
90.78
90.70
90.60
90.52
90.43
90.35
90.27
90.22
90.18
90.15
90.12
90.12
90.15
90.22
90.32
90.45
90.60
90.77
90.95
91.13
91.32
91.53
91.78
92.05
92.32
92.58
92.83
93.08
93.33
93.58
93.83
94.07
94.30
94.52
94.72
94.93
95.13
95.33
95.53
95.73
95.95
96.18
96.43
96.70
96.97
97.27
97.60
97.95
98.25
98.58
98.93
99.30
99.65
100.02
100.37
100.72
101.08
101.47
101.83
102.20
102.58
103.00
103.40
103.78
104.08
104.40
104.73
105.03
105.32
105.60
105.88
106.17
106.42
106.62
106.83
107.03
107.18
107.35
107.50
107.63
107.73
107.60
107.45
107.30
107.28
107.27
107.23
107.13
107.08
107.05
107.00
106.97
106.93
106.88
106.78
106.62
106.42
106.03
105.60
105.20
104.72
104.22
103.70
103.15
102.60
101.95
101.32
100.67
100.03
99.42
98.78
98.13
97.52
96.87
96.22
95.57
94.92
94.25
93.62
92.95
92.18
91.47
90.78
90.10
89.50
88.88
88.27
87.65
87.02
86.47
85.93
85.37
84.83
84.32
83.73
83.12
82.47
81.75
81.05
80.33
79.82
79.52
79.23
78.87
78.37
77.87
77.40
77.00
76.53
76.05
75.60
75.17
74.75
74.33
74.02
73.72
73.48
73.43
73.42
73.35
73.37
73.40
73.45
73.47
73.48
73.58
73.67
73.75
73.85
73.97
74.12
74.30
74.47
74.45
74.42
74.40
74.35
74.33
74.30
74.30
74.42
74.48
74.52
74.62
74.72
74.82
74.92
75.03
75.20
75.33
75.40
75.55
75.73
75.90
76.08
76.27
76.52
76.78
77.02
77.28
77.35
77.43
77.48
77.57
77.65
77.75
77.75
77.75
77.77
77.80
77.82
77.68
77.65
77.65
77.63
77.63
77.58
77.47
77.33
77.22
77.17
77.10
77.05
77.13
77.20
77.28
77.38
77.53
77.70
77.80
77.92
78.00
78.08
78.33
78.62
78.87
79.13
79.37
79.63
79.87
80.07
80.22
80.38
80.48
80.58
80.58
80.58
80.57
80.52
80.40
80.32
80.13
79.88
79.68
79.48
79.32
79.17
79.05
78.97
78.87
78.80
78.68
78.53
78.32
78.18
78.00
77.93
77.85
77.80
77.75
77.72
77.83
77.85
77.87
77.87
77.87
77.88
77.92
77.97
78.00
77.93
77.87
77.78
77.62
77.47
77.30
77.10
76.85
76.58
76.33
75.95
75.60
75.27
74.97
74.72
74.48
74.27
74.05
73.80
73.57
73.35
73.18
73.03
72.90
72.77
72.72
72.68
72.52
72.43
72.38
72.35
72.33
72.30
72.23
72.15
72.05
71.93
71.78
71.62
71.47
71.32
71.18
71.08
71.08
71.02
70.97
70.92
70.88
70.83
70.77
70.70
70.62
70.53
70.43
70.32
70.22
70.12
70.03
69.97
69.93
69.92
69.90
69.90
69.92
69.92
69.92
69.92
69.90
69.87
69.82
69.87
69.87
69.83
69.77
69.65
69.52
69.37
69.23
69.25
69.32
69.45
69.60
69.77
70.02
70.22
70.40
70.32
70.38
70.38
70.37
70.33
70.28
70.25
70.22
70.20
70.18
70.17
70.17
70.17
70.15
70.13
70.12
70.10
70.08
70.05
70.03
70.02
70.00
69.98
69.97
69.93
69.88
69.83
69.78
69.75
69.72
69.68
69.63
69.58
69.52
69.43
69.35
69.23
69.12
68.98
68.80
68.73
68.68
68.67
68.67
68.65
68.63
68.60
68.57
68.50
68.50
68.48
68.45
68.25
68.00
67.68
67.33
66.98
66.55
66.17
65.83
65.73
65.65
65.58
65.53
65.50
65.48
65.47
65.45
65.42
65.38
65.33
65.28
65.23
65.20
65.17
65.18
65.13
65.08
65.03
64.97
64.88
64.95
65.02
65.10
65.22
65.38
65.58
65.83
66.07
66.28
66.47
66.75
67.07
67.40
67.72
68.15
68.63
68.60
68.60
68.67
68.62
68.57
68.50
68.43
68.37
68.32
68.30
68.30
68.32
68.28
68.25
68.20
68.17
68.33
68.50
68.72
68.92
69.10
69.28
69.45
69.62
69.77
69.90
70.05
70.17
70.28
70.37
70.42
70.47
70.52
70.57
70.62
70.67
70.73
70.80
70.82
70.90
70.97
71.03
71.10
71.17
71.08
70.97
70.83
70.67
70.47
70.23
69.95
69.68
69.43
69.22
68.92
68.58
68.23
67.92
67.48
67.02
67.05
67.08
67.10
67.12
67.13
67.13
67.13
67.15
67.17
67.15
67.13
67.12
67.12
67.13
67.18
67.23
67.10
66.97
66.82
66.67
66.53
66.43
66.32
66.20
66.10
65.98
65.85
65.75
65.63
65.55
65.50
65.47
65.43
65.38
65.33
65.28
65.22
65.17
65.12
65.05
65.02
64.98
64.97
64.93
64.88
64.83
64.77
64.82
64.83
64.83
64.80
64.73
64.67
64.62
64.55
64.50
64.45
64.42
64.40
64.40
64.42
64.42
64.45
64.52
64.58
64.68
64.80
64.92
65.05
65.18
65.33
65.48
65.55
65.63
65.75
65.85
65.95
66.05
66.13
66.20
66.27
66.32
66.37
66.42
66.42
66.42
66.38
66.32
66.25
66.17
66.22
66.28
66.33
66.45
66.60
66.78
66.85
66.93
67.02
67.12
67.18
67.27
67.27
67.28
67.32
67.38
67.48
67.47
67.50
67.58
67.70
67.82
67.90
67.98
68.07
68.13
68.23
68.32
68.40
68.47
68.52
68.58
68.58
68.55
68.50
68.42
68.32
68.18
68.03
67.88
67.72
67.57
67.48
67.38
67.23
67.10
66.97
66.82
66.67
66.57
66.47
66.37
66.30
66.23
66.18
66.17
66.17
66.18
66.22
66.30
66.25
66.18
66.15
66.10
66.00
65.88
65.87
65.80
65.72
65.62
65.53
65.42
65.40
65.40
65.38
65.33
65.27
65.22
65.20
65.15
65.12
65.13
65.18
65.20
65.13
65.12
65.05
64.98
64.90
64.82
64.73
64.67
64.63
64.62
64.60
64.62
64.62
64.63
64.68
64.77
64.87
65.00
65.13
65.28
65.47
65.63
65.78
65.95
66.08
66.17
66.23
66.27
66.28
66.28
66.28
66.28
66.27
66.27
66.28
66.28
66.28
66.28
66.25
66.22
66.20
66.18
66.18
66.18
66.20
66.20
66.20
66.20
66.17
66.12
66.12
66.13
66.15
66.17
66.15
66.15
66.12
66.07
66.00
65.95
65.98
66.08
66.22
66.35
66.50
66.67
66.85
66.92
67.00
67.08
67.20
67.32
67.42
67.55
67.63
67.68
67.72
67.70
67.67
67.62
67.55
67.48
67.42
67.35
67.32
67.28
67.20
67.15
67.10
67.10
67.12
67.13
67.25
67.35
67.42
67.48
67.57
67.68
67.83
67.97
68.10
68.22
68.30
68.38
68.45
68.53
68.60
68.68
68.78
68.87
68.88
68.90
68.92
68.92
68.90
68.87
68.85
68.83
68.85
68.87
68.88
68.80
68.70
68.63
68.55
68.45
68.37
68.35
68.33
68.30
68.25
68.17
68.13
68.10
68.12
68.25
68.38
68.52
68.67
68.85
69.07
69.27
69.47
69.63
69.80
70.02
70.30
70.57
70.83
71.15
71.43
71.78
72.02
72.32
72.67
72.97
72.78
72.57
72.33
72.10
71.87
71.67
71.50
71.37
71.25
71.17
71.10
71.05
71.00
70.95
70.93
70.92
70.88
70.85
70.82
70.73
70.65
70.57
70.50
70.45
70.43
70.42
70.45
70.52
70.60
70.68
70.72
70.75
70.75
70.70
70.63
70.57
70.47
70.33
70.18
69.92
69.65
69.38
69.12
68.80
68.45
68.13
67.83
67.57
67.30
67.00
66.70
66.40
66.12
65.75
65.40
64.97
64.57
64.12
63.65
63.23
63.33
63.43
63.55
63.68
63.88
64.07
64.25
64.43
64.63
64.77
64.90
64.95
64.98
65.03
65.07
65.10
65.15
65.20
65.25
65.37
65.48
65.62
65.72
65.82
65.88
65.93
65.92
65.82
65.67
65.52
65.38
65.30
65.38
65.52
65.68
65.90
66.28
66.68
67.02
67.37
67.72
67.97
68.17
68.40
68.62
68.93
69.17
69.37
69.53
69.70
69.85
70.00
70.12
70.22
70.30
70.38
70.45
70.53
70.62
70.70
70.77
70.85
70.92
70.97
70.95
70.92
70.87
70.82
70.73
70.67
70.60
70.60
70.65
70.72
70.78
70.88
70.97
71.05
71.13
71.17
71.20
71.22
71.25
71.27
71.30
71.33
71.38
71.43
71.52
71.58
71.63
71.67
71.55
71.42
71.28
71.12
70.82
70.50
70.23
69.98
69.73
69.62
69.55
69.47
69.40
69.23
69.15
69.10
69.08
69.07
69.07
69.08
69.12
69.17
69.23
69.30
69.40
69.45
69.47
69.50
69.52
69.52
69.52
69.50
69.47
69.75
70.02
70.23
70.20
70.18
70.15
70.12
70.05
69.98
69.93
69.85
69.78
69.72
69.65
69.60
69.55
69.50
69.42
69.32
69.20
69.08
68.98
68.95
68.93
68.95
68.98
69.03
69.10
69.20
69.23
69.27
69.27
69.28
69.30
69.32
69.35
69.38
69.42
69.47
69.52
69.57
69.60
69.65
69.65
69.53
69.40
69.22
69.00
68.82
68.67
68.50
68.32
68.17
68.05
67.87
67.67
67.47
67.27
67.10
66.93
66.57
66.23
65.90
65.83
65.78
65.73
65.70
65.68
65.65
65.62
65.52
65.32
65.20
65.07
64.95
64.85
64.75
64.70
64.68
64.68
64.72
64.73
64.72
64.68
64.63
64.58
64.52
64.43
64.33
64.28
64.23
64.20
64.13
64.07
63.98
63.87
63.73
63.60
63.45
63.27
63.10
62.95
62.78
62.67
62.67
62.67
62.72
62.78
62.83
62.85
62.88
62.93
62.98
62.98
63.05
63.15
63.23
63.32
63.38
63.47
63.43
63.42
63.42
63.42
63.43
63.47
63.48
63.48
63.48
63.48
63.53
63.68
63.73
63.80
63.87
63.90
63.97
64.02
64.07
64.12
64.13
64.15
64.13
64.10
64.03
63.97
63.92
63.85
63.83
63.80
63.77
63.72
63.70
63.68
63.65
63.63
63.62
63.60
63.58
63.65
63.73
63.82
63.95
64.12
64.28
64.47
64.65
64.85
65.07
65.28
65.33
65.37
65.37
65.43
65.47
65.47
65.50
65.52
65.52
65.53
65.55
65.57
65.60
65.63
65.65
65.65
65.65
65.67
65.70
65.75
65.83
65.93
66.08
66.22
66.35
66.47
66.53
66.57
66.57
66.57
66.55
66.55
66.57
66.63
66.72
66.83
66.92
67.00
67.00
67.00
67.00
67.00
67.03
67.07
67.13
67.18
67.22
67.27
67.32
67.32
67.28
67.27
67.20
67.10
67.00
66.90
66.78
66.67
66.52
66.35
66.35
66.35
66.37
66.37
66.37
66.37
66.37
66.37
66.38
66.38
66.38
66.37
66.37
66.37
66.38
66.42
66.47
66.50
66.52
66.50
66.47
66.43
66.37
66.30
66.23
66.20
66.23
66.30
66.40
66.48
66.60
66.72
66.85
66.93
67.02
66.92
66.82
66.72
66.67
66.62
66.57
66.57
66.53
66.52
66.50
66.50
66.53
66.57
66.58
66.60
66.62
66.62
66.62
66.60
66.58
66.60
66.63
66.65
66.67
66.68
66.68
66.67
66.78
66.85
66.92
67.00
67.05
67.15
67.12
67.10
67.08
67.08
67.07
67.03
66.98
66.93
66.88
66.83
66.78
66.75
66.72
66.65
66.58
66.53
66.48
66.42
66.30
66.17
66.00
65.85
65.70
65.52
65.32
65.15
65.00
65.02
65.03
65.08
65.15
65.23
65.32
65.50
65.70
65.87
66.03
66.18
66.35
66.50
66.67
66.82
67.07
67.25
67.42
67.42
67.42
67.40
67.37
67.32
67.28
67.30
67.33
67.40
67.35
67.33
67.32
67.30
67.27
67.22
67.28
67.35
67.40
67.45
67.52
67.62
67.70
67.80
67.87
67.93
68.00
68.07
68.13
68.23
68.35
68.48
68.58
68.72
68.83
68.95
69.08
69.18
69.32
69.48
69.65
69.80
69.95
70.10
70.25
70.37
70.42
70.45
70.48
70.35
70.18
70.02
69.83
69.67
69.50
69.35
69.22
69.10
68.87
68.68
68.50
68.48
68.47
68.45
68.45
68.53
68.57
68.57
68.55
68.52
68.48
68.45
68.42
68.38
68.40
68.40
68.47
68.50
68.60
68.72
68.82
68.93
69.03
69.07
69.08
69.12
69.13
69.15
69.18
69.20
69.22
69.20
69.22
69.22
69.23
69.30
69.37
69.47
69.53
69.58
69.67
69.70
69.73
69.75
69.78
69.82
69.90
69.95
69.97
70.03
70.08
70.12
70.22
70.32
70.37
70.38
70.45
70.45
70.43
70.40
70.40
70.43
70.52
70.65
70.67
70.63
70.68
70.75
70.83
70.97
71.10
71.22
71.30
71.37
71.38
71.38
71.30
71.22
71.08
70.92
70.75
70.55
70.35
70.18
70.03
69.87
69.72
69.57
69.38
69.18
68.95
68.72
68.48
68.25
68.02
67.72
67.40
67.08
66.75
66.43
66.08
65.77
65.45
65.13
64.82
64.50
64.15
63.85
63.57
63.28
63.03
62.82
62.53
62.25
61.98
61.73
61.42
61.17
60.95
60.75
60.53
60.28
59.98
59.62
59.37
59.12
58.82
58.50
58.18
57.82
57.45
57.12
56.82
56.52
56.25
56.00
55.78
55.58
55.38
55.18
54.98
54.78
54.62
54.47
54.33
54.22
54.12
54.02
53.95
53.90
53.87
53.85
53.82
53.77
53.72
53.70
53.70
53.72
53.73
53.72
53.70
53.72
53.72
53.72
53.72
53.75
53.78
53.82
53.85
53.87
53.85
53.85
53.83
53.82
53.80
53.78
53.77
53.75
53.73
53.73
53.75
53.78
53.83
53.90
53.98
54.02
54.33
54.57
54.85
55.17
55.50
55.85
56.22
56.57
57.03
57.48
57.90
58.33
58.77
59.23
59.68
60.15
60.62
