1581650043.00
64.000000
-0.00
-0.00
-0.00
-0.00
-0.00
-0.00
-0.00
-0.00
-0.00
-0.00
0.00
0.01
0.01
-0.00
-0.03
-0.05
-0.05
0.00
0.13
0.36
0.66
1.01
1.37
1.72
2.06
2.40
2.79
3.24
3.80
4.42
5.06
5.66
6.20
6.68
7.15
7.68
8.31
9.14
10.09
11.04
11.88
12.56
13.14
13.76
14.65
15.96
17.91
20.32
22.90
25.38
27.58
29.57
31.68
34.32
37.81
42.54
48.15
54.10
59.83
64.97
69.58
74.14
79.34
85.71
93.76
103.00
112.62
121.73
129.77
136.75
143.30
150.75
157.77
166.64
177.95
191.79
206.97
220.57
228.25
225.36
208.53
176.87
132.76
80.05
23.07
-34.94
-92.44
-149.16
-205.23
-260.37
-313.74
-363.87
-409.83
-450.91
-486.50
-515.74
-537.23
-549.22
-549.96
-538.37
-514.21
-478.67
-433.88
-382.45
-327.02
-269.84
-212.63
-156.66
-102.95
-52.37
-5.90
35.58
71.43
101.35
125.50
144.38
158.69
169.15
176.37
180.75
182.57
182.07
179.51
175.23
169.65
163.18
156.15
148.81
141.30
133.69
126.02
118.33
110.69
103.16
95.80
88.68
81.83
75.25
68.95
62.95
57.25
51.86
46.78
42.03
37.59
33.45
29.61
26.07
22.81
19.83
17.11
14.67
12.48
10.54
8.83
7.35
6.07
4.97
4.05
3.27
2.62
2.09
1.65
1.30
1.01
0.79
0.61
0.47
0.37
0.29
0.24
0.20
0.18
0.17
0.18
0.18
0.20
0.23
0.27
0.34
0.43
0.49
0.49
0.42
0.28
0.09
-0.10
-0.21
-0.21
-0.11
0.05
0.22
0.34
0.37
0.36
0.36
0.42
0.60
0.88
1.17
1.39
1.44
1.33
1.12
0.98
1.06
1.47
2.14
2.87
3.36
3.40
2.94
2.18
1.52
1.39
2.04
3.36
4.90
6.02
6.20
5.32
3.74
2.25
1.71
2.61
4.80
7.53
9.66
10.25
8.97
6.26
3.13
0.55
-0.85
-1.23
-1.37
-2.33
-5.12
-10.63
-19.42
-31.37
-44.97
-56.88
-62.32
-56.62
-37.37
-5.98
32.07
68.84
96.76
111.13
111.21
99.56
80.08
56.21
30.25
3.94
-20.63
-40.57
-52.92
-56.16
-51.40
-42.34
-33.90
-30.35
-33.27
-41.22
-50.47
-56.94
-58.22
-54.44
-47.92
-41.96
-39.28
-40.94
-46.40
-53.68
-60.35
-64.36
-64.17
-59.16
-49.59
-36.80
-22.41
-10.68
-5.71
-9.79
-21.73
-36.49
-46.68
-45.76
-31.53
-6.22
23.60
50.16
67.61
74.00
71.15
62.79
52.26
41.21
30.21
19.23
9.05
1.47
-1.66
0.52
6.98
15.24
22.34
26.61
27.88
27.75
28.99
34.50
46.29
64.79
88.91
112.43
130.15
137.69
132.49
114.42
85.69
50.21
12.34
-24.21
-57.15
-85.08
-107.91
-126.11
-140.17
-150.13
-155.51
-155.59
-149.73
-137.48
-117.96
-90.54
-55.37
-14.09
29.61
70.45
102.52
121.43
126.13
119.99
108.70
97.73
90.03
85.30
81.54
76.13
67.60
56.40
45.04
36.02
30.52
28.19
27.76
28.48
29.17
28.45
25.25
20.27
15.42
13.61
18.47
33.09
59.38
94.73
132.13
162.53
179.36
179.95
166.10
142.94
110.43
73.83
39.98
13.59
-11.07
-39.55
-72.98
-108.27
-139.21
-158.33
-158.55
-137.51
-98.80
-50.69
-1.81
40.63
72.32
92.01
100.04
97.45
83.76
57.85
19.74
-27.33
-78.30
-127.95
-172.13
-207.88
-232.56
-244.70
-244.09
-232.30
-212.42
-189.19
-167.69
-151.28
-140.38
-132.46
-124.07
-112.69
-97.85
-80.93
-64.90
-53.76
-52.07
-64.19
-93.05
-138.63
-196.67
-258.52
-312.89
-349.23
-361.00
-347.52
-313.46
-266.44
-214.18
-162.37
-114.08
-70.35
-31.26
3.39
34.01
61.46
87.26
113.32
141.45
172.79
207.39
244.00
280.18
312.79
338.70
355.53
362.15
358.73
346.30
326.21
299.83
268.72
235.10
202.07
173.08
150.67
135.02
123.39
110.79
91.89
63.28
24.97
-19.47
-63.85
-101.10
-124.81
-130.45
-116.13
-83.08
-35.70
19.06
73.01
118.68
150.85
167.39
169.08
158.60
139.61
116.09
92.03
71.10
56.07
48.15
46.66
49.26
52.87
54.70
52.97
46.94
36.48
21.46
1.57
-23.34
-52.77
-85.02
-117.11
-145.16
-165.23
-174.36
-171.29
-156.93
-134.38
-108.35
-83.99
-65.71
-55.88
-54.03
-56.76
-58.42
-52.22
-31.71
7.67
66.95
142.35
225.20
303.29
363.82
397.07
399.16
372.85
326.04
268.43
208.42
151.10
98.23
49.31
2.91
-42.80
-90.03
-141.32
-198.88
-263.15
-331.16
-396.21
-449.17
-481.05
-486.42
-465.63
-424.97
-374.51
-324.42
-281.52
-247.61
-219.99
-193.89
-165.26
-132.43
-96.27
-58.84
-21.61
15.63
54.57
97.03
143.00
189.65
231.59
262.53
277.39
274.07
254.03
221.38
181.70
140.28
101.05
66.23
36.59
12.12
-7.36
-21.80
-31.07
-35.34
-35.49
-33.04
-29.58
-25.99
-21.90
-16.10
-7.74
2.46
12.03
17.61
16.89
10.11
0.26
-8.19
-11.59
-8.88
-2.16
4.42
6.33
0.49
-13.99
-36.05
-63.31
-92.77
-121.31
-145.93
-163.95
-173.57
-174.39
-167.82
-156.86
-145.26
-136.15
-130.96
-128.75
-126.67
-121.22
-109.83
-92.14
-70.37
-48.56
-31.13
-21.22
-19.66
-24.82
-33.30
-41.13
-44.87
-42.55
-33.98
-20.67
-5.17
9.70
21.78
30.07
34.80
37.02
37.81
37.67
36.42
33.58
28.80
22.10
13.80
3.98
-7.96
-23.23
-43.03
-67.49
-94.77
-120.82
-140.15
-147.39
-138.92
-114.30
-76.82
-33.06
8.86
41.81
62.26
72.06
78.15
90.12
116.36
160.42
219.47
285.67
349.57
404.09
446.73
479.10
504.20
523.54
535.68
536.96
523.76
494.87
452.30
400.26
343.10
283.36
221.31
156.44
89.55
24.38
-32.80
-75.24
-98.76
-103.75
-95.33
-81.21
-68.72
-62.24
-62.25
-66.32
-71.05
-74.20
-75.72
-77.56
-82.31
-91.59
-105.09
-120.48
-134.48
-144.31
-148.76
-148.42
-145.06
-140.54
-136.06
-131.92
-127.93
-123.88
-119.87
-116.24
-113.40
-111.42
-109.95
-108.16
-104.87
-98.86
-89.26
-76.11
-60.49
-44.34
-29.85
-18.70
-11.61
-8.37
-8.31
-10.72
-14.94
-20.14
-25.04
-28.04
-27.80
-24.00
-17.85
-11.83
-8.81
-10.79
-18.06
-29.19
-41.67
-53.01
-61.55
-66.73
-68.78
-68.21
-65.43
-60.64
-54.03
-45.99
-37.25
-28.78
-21.46
-15.73
-11.39
-7.69
-3.66
1.42
7.69
14.53
20.76
25.03
26.38
24.55
20.17
14.48
8.96
4.78
2.48
1.92
2.49
3.49
4.44
5.14
5.47
5.31
4.39
2.58
0.07
-2.48
-4.16
-4.18
-2.36
0.68
3.71
5.30
4.34
0.38
-6.32
-14.97
-24.46
-33.67
-41.57
-47.33
-50.32
-50.09
-46.39
-39.20
-28.86
-16.06
-1.90
12.30
25.17
35.48
42.36
45.38
44.65
40.85
35.28
29.56
25.27
23.35
23.57
24.43
23.64
19.03
9.49
-4.41
-20.71
-36.67
-49.80
-58.51
-62.20
-61.00
-55.29
-45.59
-32.65
-17.72
-2.51
11.14
21.84
29.08
33.33
35.67
37.23
38.71
40.28
41.68
42.61
42.88
42.50
41.52
39.91
37.68
35.00
32.42
30.90
31.56
35.20
41.87
50.73
60.21
68.62
74.69
77.86
78.22
76.08
71.63
64.98
56.23
45.83
34.64
23.75
14.00
5.61
-1.93
-9.56
-18.06
-27.48
-36.91
-44.73
-49.33
-49.99
-47.39
-43.57
-41.05
-41.63
-45.47
-50.83
-54.94
-55.31
-50.92
-42.61
-32.39
-22.31
-13.44
-5.60
2.10
10.39
19.24
27.81
34.98
39.98
42.69
43.54
43.08
41.66
39.40
36.47
33.44
31.33
31.11
33.10
36.50
39.60
40.52
38.16
32.76
25.70
18.61
12.48
7.20
1.80
-4.92
-13.64
-24.19
-35.61
-46.50
-55.58
-62.11
-66.22
-68.99
-72.20
-77.65
-86.33
-97.79
-110.17
-120.79
-127.00
-126.85
-119.21
-103.78
-81.45
-54.94
-29.26
-10.64
-4.11
-10.57
-25.22
-39.12
-43.40
-34.08
-14.51
6.30
18.74
17.88
5.83
-10.15
-22.50
-27.87
-28.46
-29.69
-35.98
-47.60
-60.56
-69.35
-70.68
-65.60
-59.11
-57.25
-63.76
-78.23
-96.44
-112.71
-122.54
-124.18
-118.53
-107.66
-93.10
-75.05
-52.87
-26.32
3.27
32.78
58.11
75.64
83.54
82.22
73.83
61.12
46.37
30.76
14.47
-2.63
-20.33
-37.69
-53.03
-64.26
-69.37
-66.83
-56.00
-37.61
-14.04
10.69
31.69
44.32
45.92
37.01
21.71
6.85
-0.17
6.08
27.08
59.83
98.10
134.75
164.27
184.27
195.33
199.71
199.71
196.58
190.67
182.15
171.74
160.83
150.84
142.42
135.06
127.46
118.34
107.21
94.63
81.84
70.14
60.36
52.73
47.13
43.44
41.61
41.55
42.91
44.95
46.78
47.64
47.06
44.77
40.68
34.94
28.28
22.28
19.30
21.98
32.11
49.71
72.61
96.96
118.42
133.53
140.60
139.57
131.35
116.90
96.92
72.05
43.62
14.12
-12.89
-33.85
-46.48
-50.79
-49.19
-45.42
-43.02
-44.11
-48.97
-56.71
-66.22
-76.93
-88.70
-101.36
-114.34
-126.86
-138.58
-150.15
-163.01
-178.51
-196.58
-214.92
-229.32
-235.18
-229.29
-210.87
-181.62
-144.81
-104.03
-62.20
-20.91
19.97
61.91
107.12
157.57
213.76
273.90
334.16
389.84
436.78
472.58
495.75
505.49
501.44
483.98
454.68
416.44
373.05
328.11
284.42
242.36
200.75
158.37
114.84
70.64
26.49
-17.11
-59.83
-100.42
-138.26
-172.92
-204.04
-231.53
-255.89
-278.00
-298.69
-321.78
-345.51
-366.15
-379.84
-383.52
-374.43
-350.35
-311.32
-261.58
-209.72
-161.95
-124.02
-98.67
-84.70
-78.13
-74.61
-71.25
-66.78
-62.37
-56.81
-49.01
-37.81
-22.29
-2.12
22.19
49.15
76.26
100.30
118.73
129.34
131.77
127.87
120.85
113.47
106.58
98.92
88.43
74.33
57.14
38.79
21.51
6.53
-6.35
-18.15
-29.62
-40.27
-48.29
-51.70
-49.28
-41.18
-28.95
-15.07
-2.08
8.04
14.28
16.64
15.71
12.39
7.45
1.24
-6.57
-16.94
-31.32
-51.54
-79.43
-116.30
-161.85
-212.94
-263.14
-303.59
-325.55
-323.68
-298.50
-256.84
-209.46
-166.75
-134.33
-111.24
-91.32
-67.14
-34.14
6.82
49.53
85.13
105.83
108.17
93.80
67.87
36.84
6.60
-18.28
-35.06
-42.85
-42.85
-38.01
-32.45
-30.29
-33.47
-39.97
-43.88
-38.73
-21.10
6.80
37.94
63.50
76.38
73.90
58.11
36.52
18.52
11.29
14.26
21.33
27.60
32.58
38.94
49.21
63.43
77.96
87.67
88.41
79.65
64.82
49.44
38.24
33.47
34.20
35.85
33.67
23.86
5.20
-20.84
-51.13
-81.74
-108.22
-122.67
-121.71
-104.94
-75.99
-41.51
-9.12
15.39
29.85
36.01
37.74
37.91
37.69
36.21
32.37
26.43
20.39
17.01
18.39
24.95
34.86
45.77
54.98
61.07
64.14
65.71
67.99
73.51
84.08
99.11
115.21
126.18
124.90
106.28
69.85
20.09
-34.58
-84.69
-122.70
-144.31
-148.70
-137.77
-115.32
-86.78
-59.42
-40.32
-34.43
-42.67
-61.29
-83.18
-100.63
-108.06
-99.39
-73.42
-32.51
19.20
77.58
139.37
201.87
261.83
314.47
353.39
371.53
364.26
331.62
278.66
213.57
144.41
76.16
9.95
-55.58
-121.74
-186.66
-244.78
-288.50
-311.04
-308.88
-282.56
-235.90
-174.52
-105.02
-34.20
30.82
82.71
115.09
124.43
111.97
84.44
52.60
27.84
18.67
28.04
52.67
84.59
113.79
131.05
129.76
107.08
64.28
6.74
-56.93
-116.80
-164.56
-196.27
-213.71
-223.33
-233.30
-249.94
-275.18
-306.16
-336.91
-360.89
-373.68
-374.55
-366.51
-354.94
-344.89
-338.52
-333.64
-324.40
-303.83
-267.06
-213.32
-145.72
-69.35
10.98
91.66
169.44
239.94
297.41
336.43
354.85
355.67
346.07
335.10
330.36
335.47
349.43
368.12
386.81
402.03
411.81
413.83
405.64
385.74
355.11
317.87
280.59
250.57
233.28
229.77
234.06
235.97
225.64
197.40
151.25
92.13
27.81
-33.63
-86.48
-131.12
-171.54
-211.96
-254.05
-296.69
-337.19
-372.96
-402.02
-410.57
-389.25
-339.92
-275.79
-211.19
-153.86
-105.53
-66.01
-34.47
-10.07
6.22
13.92
14.57
11.62
8.41
6.58
5.26
2.56
-3.39
-15.56
-35.29
-60.17
-83.80
-98.43
-94.90
-73.02
-38.46
-0.09
32.42
53.00
61.06
60.77
57.41
54.82
53.90
54.70
57.78
63.88
74.36
90.14
110.28
130.56
144.55
145.35
129.82
100.08
62.75
26.83
0.35
-11.21
-8.13
4.16
18.48
30.43
39.09
45.59
51.31
56.41
60.05
59.63
53.91
42.95
28.76
13.91
0.10
-11.85
-21.67
-28.93
-34.70
-39.27
-42.62
-43.65
-41.73
-37.37
-31.98
-27.22
-24.58
-28.12
-37.25
-53.06
-75.92
-105.93
-143.38
-188.53
-241.62
-287.98
-316.53
-322.51
-308.08
-276.26
-228.76
-168.10
-99.80
-32.17
26.45
68.70
92.50
100.58
98.87
92.90
85.78
78.65
72.17
67.72
65.35
64.82
65.00
64.57
62.14
56.74
48.82
40.37
34.26
31.90
33.28
36.82
40.45
42.20
41.07
37.76
34.46
34.13
38.91
49.77
65.65
83.62
99.15
107.18
103.95
88.85
65.32
39.85
19.50
9.14
10.06
19.86
33.84
46.87
54.67
54.48
45.39
28.54
6.94
-14.28
-29.13
-33.40
-26.72
-12.84
2.20
13.10
16.83
12.69
1.67
-14.79
-35.92
-60.09
-83.45
-99.45
-100.96
-80.69
-39.65
13.06
63.91
99.91
114.38
109.15
92.03
74.49
65.92
67.67
73.63
76.41
71.05
58.75
42.62
24.26
2.35
-27.62
-69.07
-124.06
-185.54
-244.11
-290.83
-319.60
-326.85
-310.74
-272.13
-216.05
-151.31
-88.01
-35.41
1.51
22.83
32.56
35.77
35.84
33.63
28.79
21.83
14.10
7.65
4.00
3.24
4.11
4.59
2.97
-0.95
-5.51
-8.46
-7.85
-2.79
5.92
16.86
28.13
38.40
47.36
55.96
65.24
75.65
86.84
97.33
105.19
108.86
108.10
103.97
98.79
94.57
92.19
91.50
91.08
88.94
83.74
75.67
66.37
58.89
56.41
61.64
76.75
101.62
133.42
167.04
196.67
215.00
218.19
206.46
180.71
147.20
113.77
86.07
65.37
49.74
35.27
20.31
4.38
-13.28
-33.23
-57.29
-87.90
-127.21
-176.11
-233.63
-295.66
-355.59
-405.01
-435.23
-440.75
-421.19
-381.41
-329.54
-274.06
-220.80
-172.44
-129.05
-89.25
-52.07
-16.94
17.18
52.87
93.97
143.90
202.82
266.03
324.77
368.70
390.24
387.72
366.05
334.29
301.55
273.37
250.36
229.60
207.07
180.09
148.09
111.94
72.76
30.88
-14.16
-63.12
-116.50
-173.96
-233.87
-293.46
-349.18
-397.34
-434.83
-459.55
-470.54
-467.81
-452.14
-425.03
-388.90
-347.13
-303.81
-262.97
-227.60
-198.98
-176.58
-158.65
-143.22
-128.92
-115.29
-102.47
-91.00
-81.35
-73.76
-68.13
-63.91
-59.88
-54.25
-45.32
-32.71
-18.28
-6.03
-0.52
-4.48
-16.88
-32.78
-45.14
-47.70
-37.25
-14.26
18.35
56.80
97.45
136.51
169.30
190.50
195.88
184.80
161.76
135.62
116.33
110.97
121.32
143.50
170.27
194.10
209.48
213.88
207.31
191.56
169.61
145.36
123.13
106.92
99.26
100.35
108.07
118.82
128.83
134.78
134.34
125.77
107.87
80.15
43.07
-1.92
-53.03
-108.48
-166.54
-224.67
-278.49
-321.71
-347.30
-350.13
-329.30
-289.05
-237.34
-182.87
-132.06
-87.43
-48.22
-12.29
21.77
53.77
82.36
106.22
124.87
138.66
147.98
152.33
150.25
139.87
120.46
93.81
64.64
39.65
25.31
25.49
39.86
63.98
90.86
113.45
126.86
129.58
123.39
112.17
100.29
91.11
86.36
86.19
89.80
96.16
104.44
114.00
124.22
134.25
142.96
149.16
151.87
150.59
145.47
137.27
127.22
116.84
107.58
100.64
96.58
95.19
95.71
97.16
98.61
99.24
98.10
94.14
86.56
75.48
62.40
49.96
40.84
36.12
34.42
32.07
24.85
10.25
-11.15
-35.66
-57.81
-72.21
-75.17
-65.29
-43.43
-12.15
25.21
64.51
101.50
132.68
156.18
172.11
182.24
189.01
194.39
200.19
206.60
212.06
213.32
205.90
185.41
149.46
99.53
41.84
-11.95
-49.28
-60.27
-41.01
5.26
69.42
139.25
202.52
249.56
276.48
283.09
272.15
248.18
216.35
181.86
149.32
122.46
91.96
52.68
3.03
-53.71
-110.92
-162.32
-204.38
-236.71
-260.28
-275.98
-282.44
-279.02
-266.60
-248.16
-228.18
-211.19
-200.29
-196.93
-200.40
-207.40
-215.27
-222.86
-231.06
-242.11
-255.52
-270.86
-287.30
-303.90
-319.17
-331.69
-339.21
-338.26
-324.58
-295.26
-251.06
-197.04
-141.34
-91.76
-53.06
-25.60
-6.65
6.70
15.12
17.26
11.92
0.61
-11.52
-17.76
-13.27
2.28
24.47
46.65
63.41
73.71
80.83
89.66
103.02
119.44
133.69
139.47
132.64
112.89
83.46
49.50
16.69
-9.86
-25.78
-27.87
-15.19
9.63
39.53
64.62
75.67
67.49
40.24
-2.05
-54.36
-112.94
-175.17
-237.63
-294.49
-337.76
-360.34
-359.48
-338.62
-306.01
-271.05
-240.36
-215.87
-195.39
-174.84
-150.88
-122.25
-89.48
-53.79
-16.14
22.90
62.51
100.93
135.32
162.29
179.47
186.83
187.23
185.54
186.69
193.41
204.93
217.25
224.99
223.85
212.58
193.32
170.48
148.80
131.56
119.88
113.09
109.64
108.12
107.61
107.58
107.50
106.68
104.45
100.54
95.32
89.76
85.13
82.47
82.24
84.10
87.10
89.95
91.60
91.68
90.71
89.83
90.00
91.29
92.44
91.21
85.41
74.15
58.53
41.34
25.95
14.77
8.31
5.23
3.17
0.07
-5.02
-11.86
-19.57
-27.47
-35.54
-44.43
-55.02
-67.93
-83.14
-99.87
-116.73
-131.90
-143.45
-149.71
-149.77
-143.89
-133.68
-121.80
-111.24
-104.35
-102.05
-103.61
-107.10
-110.40
-112.05
-111.82
-110.54
-109.48
-109.69
-111.74
-115.79
-121.98
-130.49
-141.42
-154.51
-168.88
-183.13
-195.61
-204.97
-210.51
-212.21
-210.42
-205.36
-196.71
-183.61
-165.00
-140.18
-109.37
-73.80
-35.32
4.33
44.15
83.90
123.66
163.05
200.86
235.35
265.02
289.41
309.26
326.05
340.98
354.39
365.54
373.19
376.44
375.28
370.73
364.35
357.71
351.76
346.46
340.75
332.67
319.75
299.58
270.43
231.61
183.55
127.47
65.27
-0.44
-65.99
-126.63
-177.12
-213.16
-233.00
-238.38
-234.08
-226.10
-219.42
-216.39
-216.54
-217.73
-217.64
-214.57
-207.51
-195.82
-179.19
-158.15
-134.60
-111.64
-92.42
-78.53
-68.97
-60.34
-48.45
-30.31
-5.53
23.71
53.96
82.00
105.69
123.92
135.78
140.20
136.21
123.94
105.44
84.57
65.92
53.10
47.41
47.53
50.59
53.81
55.87
57.16
59.01
62.41
67.07
71.30
72.72
69.20
59.68
44.63
25.96
6.49
-11.19
-25.75
-37.88
-50.07
-65.42
-85.96
-111.57
-139.84
-167.30
-190.99
-209.56
-223.07
-231.91
-235.95
-234.60
-228.01
-218.42
-210.44
-209.90
-221.91
-249.11
-290.77
-342.89
-398.88
-450.57
-489.51
-508.60
-503.83
-475.56
-428.49
-370.22
-308.69
-250.01
-197.18
-150.61
-109.30
-72.07
-37.87
-5.55
26.61
60.95
99.65
143.57
191.29
239.05
281.46
313.33
331.70
337.10
333.50
326.75
322.13
322.32
326.58
331.70
333.99
331.16
323.18
311.74
298.88
285.78
272.28
257.45
240.54
221.71
202.19
183.64
167.38
153.86
142.67
132.95
123.95
115.27
106.87
98.84
91.16
83.50
75.35
66.21
55.81
44.39
32.89
22.82
15.84
12.96
13.70
15.65
14.99
7.67
-8.87
-34.29
-65.11
-95.62
-119.75
-133.00
-133.76
-123.54
-106.21
-86.78
-70.09
-59.73
-57.54
-63.33
-75.04
-89.36
-102.45
-110.91
-112.56
-106.88
-95.01
-79.38
-63.10
-49.22
-40.12
-36.88
-39.09
-44.89
-51.48
-56.04
-56.57
-52.56
-45.08
-36.27
-28.38
-22.98
-20.41
-19.78
-19.51
-18.02
-14.38
-8.66
-1.78
4.77
9.58
11.71
10.99
7.92
3.37
-1.77
-6.83
-11.42
-15.34
-18.54
-21.13
-23.42
-25.92
-29.24
-33.73
-39.32
-45.44
-51.24
-55.98
-59.28
-61.16
-61.87
-61.62
-60.37
-57.89
-53.92
-48.39
-41.49
-33.68
-25.53
-17.66
-10.73
-5.44
-2.50
-2.39
-5.12
-10.02
-15.75
-20.69
-23.38
-22.97
-19.43
-13.40
-6.00
1.58
8.26
13.32
16.41
17.73
17.91
17.80
18.15
19.23
20.74
22.03
22.53
22.11
21.22
20.61
20.90
22.31
24.62
27.48
30.83
35.11
41.31
50.59
63.71
80.44
99.30
117.61
132.07
139.63
138.26
127.52
108.49
83.44
55.10
26.14
-1.14
-24.96
-44.06
-57.80
-66.17
-69.76
-69.43
-66.06
-60.41
-53.36
-46.04
-39.88
-36.12
-35.10
-35.74
-35.74
-32.42
-24.14
-11.20
4.05
18.14
27.99
32.10
30.82
25.70
18.36
9.59
-0.83
-13.46
-28.22
-43.63
-56.71
-63.60
-60.78
-46.30
-20.74
12.50
47.81
78.69
99.45
106.88
101.17
85.82
66.41
48.70
36.83
32.30
34.07
39.58
46.07
51.49
54.77
55.53
53.60
49.00
42.08
33.93
26.36
21.38
20.22
22.57
26.57
29.63
29.92
27.43
24.26
23.71
28.56
39.61
55.16
71.81
86.12
96.07
101.66
104.41
106.14
107.92
109.59
110.07
108.00
102.32
92.49
78.46
60.65
40.00
18.03
-3.30
-22.05
-36.93
-47.80
-55.69
-62.28
-69.01
-76.25
-83.00
-87.30
-87.14
-81.67
-71.70
-59.58
-48.25
-40.26
-37.21
-39.87
-48.70
-64.09
-85.96
-112.88
-141.46
-166.64
-183.19
-187.74
-180.26
-164.12
-144.70
-127.14
-114.48
-107.04
-103.10
-100.42
-97.42
-93.71
-89.61
-85.26
-80.04
-72.65
-61.81
-47.12
-29.49
-10.76
7.12
23.20
37.94
52.96
70.19
90.92
115.19
141.90
169.32
195.67
219.49
239.77
255.87
267.39
274.17
276.23
273.38
265.00
249.81
226.40
194.38
155.37
113.09
72.19
36.26
6.28
-19.58
-44.69
-71.91
-101.95
-133.52
-164.53
-193.23
-218.06
-236.93
-246.60
-243.98
-228.37
-203.27
-176.25
-156.40
-150.36
-158.17
-173.91
-187.70
-190.63
-179.30
-156.65
-129.23
-103.16
-82.16
-67.99
-61.91
-64.65
-75.64
-92.06
-107.97
-116.02
-110.28
-89.12
-55.96
-17.82
17.95
46.46
65.27
75.90
82.25
88.53
97.71
111.29
129.76
153.14
180.86
211.22
241.55
268.51
288.83
300.54
303.49
299.16
289.61
276.32
259.84
240.45
219.04
197.69
179.35
166.52
159.76
156.80
153.04
143.12
123.35
93.39
56.69
19.60
-10.92
-29.64
-34.87
-28.66
-15.62
-0.73
12.61
23.39
32.65
42.10
52.63
63.51
72.46
76.62
73.78
63.30
46.23
24.87
1.80
-21.08
-43.19
-65.34
-89.24
-116.91
-150.04
-189.26
-233.53
-279.73
-322.75
-356.51
-375.56
-376.92
-361.12
-331.90
-294.70
-254.48
-213.99
-173.29
-130.55
-83.97
-33.63
17.41
63.73
99.40
120.39
126.17
119.71
105.83
88.73
70.36
50.47
28.34
4.70
-17.37
-33.59
-40.79
-39.07
-32.20
-25.96
-25.22
-31.54
-42.59
-53.39
-58.77
-55.56
-43.58
-24.96
-2.88
19.68
40.16
56.00
64.05
60.71
42.96
9.95
-35.71
-88.02
-139.05
-181.33
-210.07
-224.16
-225.56
-217.60
-203.07
-183.41
-159.12
-130.98
-101.05
-72.72
-49.60
-34.10
-26.55
-25.37
-28.31
-33.75
-41.33
-51.48
-64.65
-80.49
-97.76
-114.87
-130.46
-143.72
-154.11
-160.89
-162.75
-158.00
-145.24
-124.21
-96.41
-65.13
-34.69
-9.24
8.47
17.85
20.42
19.13
17.19
17.02
19.51
23.80
27.64
28.24
23.43
12.86
-1.29
-14.56
-21.40
-16.99
0.80
30.66
68.27
107.97
144.76
175.66
199.79
217.52
229.24
234.76
233.57
225.84
213.18
198.80
186.50
179.26
178.04
181.55
187.03
191.47
192.69
189.80
183.04
173.46
162.47
151.68
142.69
136.81
134.68
135.92
139.17
142.57
144.53
144.33
142.38
139.86
138.06
137.69
138.59
139.87
140.56
140.17
138.85
136.97
134.31
129.35
119.30
101.02
72.61
34.90
-8.07
-49.95
-84.16
-106.23
-115.40
-114.68
-109.59
-106.15
-109.15
-121.21
-142.54
-171.15
-203.48
-235.17
-261.79
-279.76
-286.80
-282.24
-267.14
-244.20
-217.70
-192.90
-174.60
-165.26
-163.55
-164.63
-162.38
-152.62
-135.27
-114.03
-93.57
-76.05
-59.33
-38.29
-8.26
31.66
77.68
123.28
162.73
193.81
217.97
238.27
256.58
271.99
281.38
281.43
270.93
251.76
228.05
204.21
182.98
164.20
145.37
123.04
94.33
57.82
14.12
-33.79
-80.40
-118.41
-140.69
-143.09
-126.97
-99.74
-72.75
-57.33
-61.01
-85.63
-127.75
-180.72
-236.70
-287.86
-326.91
-347.66
-346.29
-322.63
-280.69
-227.61
-171.27
-117.71
-69.77
-27.33
11.83
50.39
90.36
132.20
174.43
213.73
245.66
266.03
272.28
264.20
243.93
215.22
182.80
151.78
127.23
113.41
112.70
124.47
144.80
167.37
185.28
193.08
188.20
171.04
144.03
110.02
71.15
28.31
-18.42
-68.86
-121.80
-174.58
-223.40
-264.43
-295.08
-315.45
-327.39
-333.31
-335.14
-333.78
-329.63
-323.19
-315.08
-305.48
-294.50
-280.70
-261.50
-234.52
-198.99
-156.95
-113.44
-75.35
-49.25
-41.19
-54.22
-87.39
-136.19
-193.55
-251.61
-304.01
-346.93
-368.56
-360.46
-319.06
-247.91
-157.75
-62.43
25.59
97.49
148.17
176.62
184.52
176.28
160.51
146.69
143.08
153.94
177.57
206.74
232.89
248.96
252.38
245.55
231.44
212.13
189.80
169.22
151.22
134.23
118.09
104.01
93.92
89.46
92.10
102.81
121.78
147.60
177.72
207.62
230.63
239.54
229.11
198.94
154.12
103.25
54.79
14.89
-14.02
-32.73
-43.25
-47.13
-44.80
-36.40
-22.93
-6.80
9.35
23.94
36.82
49.19
62.82
79.20
98.85
121.07
143.90
165.13
183.17
197.84
210.39
222.87
236.46
250.01
259.67
259.93
245.86
215.29
170.17
116.88
65.20
25.86
7.43
13.10
38.93
74.69
107.44
126.56
127.83
114.44
94.19
74.67
59.17
45.72
29.53
7.07
-21.00
-49.97
-73.65
-88.06
-93.58
-94.59
-97.47
-107.71
-128.16
-158.49
-195.49
-233.70
-266.05
-284.89
-283.79
-259.92
-215.64
-158.66
-99.74
-48.74
-10.69
15.83
37.15
60.36
88.70
119.61
145.93
159.89
157.42
140.34
115.51
91.28
73.92
65.26
63.24
64.19
65.19
64.94
63.00
58.73
51.31
41.07
30.98
26.66
34.22
56.85
92.22
132.49
167.12
187.09
188.00
170.85
140.55
103.53
65.75
31.77
4.67
-14.01
-24.47
-28.68
-29.91
-31.54
-35.79
-43.46
-54.13
-67.14
-82.42
-100.64
-122.82
-149.47
-180.02
-212.57
-244.25
-271.97
-293.38
-307.81
-316.51
-322.29
-328.52
-337.75
-350.75
-366.22
-381.16
-392.07
-396.19
-392.32
-381.09
-364.53
-345.37
-326.15
-308.66
-293.49
-280.06
-266.62
-250.40
-228.29
-197.84
-158.74
-113.80
-68.89
-31.31
-7.04
1.87
-1.56
-10.35
-16.39
-13.71
-0.50
20.91
46.01
70.42
91.76
110.06
126.93
144.71
165.88
193.15
229.28
276.08
332.94
395.50
455.89
505.01
535.77
545.92
538.74
521.27
500.85
482.34
466.97
453.19
438.59
421.58
401.85
379.81
355.60
328.44
297.25
261.44
221.63
179.71
138.49
100.69
67.98
40.58
16.67
-6.30
-30.62
-57.42
-86.28
-115.64
-143.29
-167.48
-187.47
-205.36
-224.38
-248.05
-279.31
-319.50
-367.47
-419.18
-468.05
-506.17
-529.30
-535.14
-523.80
-498.07
-462.90
-424.90
-391.13
-367.38
-356.31
-361.47
-382.15
-414.08
-452.07
-491.74
-531.15
-570.72
-611.63
-653.97
-702.17
-757.65
-817.57
-876.51
-927.52
-964.88
-986.39
-993.81
-952.39
-844.58
-669.64
-445.42
-202.46
29.67
231.38
394.91
521.24
616.27
681.00
713.61
719.67
705.78
679.69
649.40
621.91
602.32
593.10
588.84
582.44
568.08
541.41
502.50
455.41
406.32
361.08
323.51
291.54
261.71
231.71
200.93
171.12
144.83
123.80
108.54
99.17
94.87
95.92
103.35
117.15
135.94
156.86
176.60
192.46
202.98
207.21
204.69
195.38
179.51
158.14
133.04
106.25
79.51
54.08
30.95
11.18
-4.08
-14.20
-19.51
-21.38
-21.58
-21.19
-19.98
-16.83
-11.03
-3.60
2.51
3.99
-0.61
-9.25
-16.94
-18.24
-10.49
4.30
20.04
29.63
28.55
17.05
-0.09
-16.07
-25.18
-24.79
-15.58
-0.44
17.28
34.78
50.06
61.79
68.89
70.50
66.08
55.72
40.30
21.61
1.99
-16.38
-31.90
-44.10
-53.41
-60.58
-65.92
-68.84
-67.90
-61.39
-48.20
-28.27
-2.92
25.55
54.35
80.80
102.90
119.71
131.46
139.35
145.13
150.35
155.78
161.15
165.34
166.94
164.91
158.87
149.17
136.57
121.95
106.05
89.51
72.90
56.86
42.10
29.38
19.28
12.17
8.06
6.63
7.46
10.17
14.66
21.06
29.47
39.69
50.90
61.76
70.80
76.93
79.88
80.20
78.88
76.96
75.08
73.44
71.99
70.68
69.73
69.69
71.50
76.34
85.40
99.34
117.82
139.03
159.86
176.58
185.93
186.08
177.17
161.00
140.22
117.36
94.27
71.93
50.78
31.10
13.23
-2.51
-15.97
-27.35
-37.12
-45.78
-53.71
-60.96
-67.30
-72.39
-76.00
-78.17
-79.20
-79.58
-79.77
-80.11
-80.66
-81.28
-81.61
-81.28
-79.92
-77.32
-73.45
-68.52
-63.02
-57.78
-53.73
-51.67
-52.08
-55.10
-60.61
-68.54
-78.98
-92.21
-108.76
-129.09
-153.44
-181.88
-214.38
-250.77
-290.36
-331.46
-371.44
-407.47
-437.03
-458.23
-469.63
-469.77
-457.04
-430.26
-389.96
-339.36
-284.95
-234.11
-192.35
-161.50
-139.80
-124.08
-112.07
-103.01
-96.87
-94.80
-97.30
-104.76
-117.69
-136.13
-158.42
-180.15
-194.59
-195.29
-181.98
-159.98
-138.57
-126.61
-128.65
-143.79
-167.11
-191.91
-211.79
-225.13
-232.02
-233.86
-232.93
-232.19
-234.87
-243.50
-257.86
-254.73
-215.93
-133.12
-14.48
119.09
245.61
351.49
433.10
493.42
537.26
565.09
576.24
570.31
549.70
519.93
487.86
459.12
437.15
422.67
411.94
400.51
383.99
360.54
331.20
299.59
267.97
238.32
211.92
187.76
164.51
139.71
111.79
80.78
47.95
15.09
-15.49
-41.59
-62.45
-78.03
-90.97
-104.47
-121.20
-143.04
-171.55
-208.06
-254.02
-310.97
-365.04
-405.09
-421.38
-408.02
-365.88
-302.97
-231.75
-164.67
-110.01
-72.73
-48.80
-33.02
-21.37
-11.78
-3.62
3.39
10.06
17.94
29.04
43.41
59.80
76.96
93.95
110.56
127.16
144.71
164.17
186.39
211.19
237.55
264.64
292.24
321.27
353.54
390.72
432.68
476.18
514.50
539.11
542.96
523.07
481.68
425.12
361.30
296.96
236.16
180.18
128.47
80.19
34.67
-8.62
-50.33
-91.41
-132.78
-174.99
-217.94
-261.04
-303.21
-343.11
-379.59
-412.18
-441.43
-468.73
-495.38
-521.25
-543.83
-558.30
-558.92
-541.27
-504.13
-450.09
-384.62
-314.12
-243.88
-176.99
-114.39
-55.69
0.01
53.58
106.00
158.81
214.17
274.11
339.15
406.74
470.69
522.25
552.87
557.27
535.48
492.74
437.31
377.36
318.56
263.42
212.12
164.02
118.63
75.70
34.75
-5.25
-45.53
-86.81
-128.81
-170.18
-209.19
-244.62
-276.47
-306.31
-337.04
-372.45
-416.04
-469.39
-530.44
-592.86
-647.02
-682.83
-693.15
-676.48
-637.43
-584.46
-526.37
-469.21
-415.07
-363.16
-311.86
-260.36
-209.06
-158.88
-110.19
-62.37
-14.26
34.87
84.63
133.36
179.00
219.78
254.76
284.01
308.18
328.02
343.81
355.13
360.93
361.11
356.14
347.03
334.83
320.09
302.74
282.18
257.54
228.05
195.53
162.89
133.18
108.34
88.33
71.49
55.51
38.23
18.27
-1.12
-15.03
-18.69
-9.59
11.26
40.25
72.96
105.93
137.34
171.82
216.12
276.52
355.97
453.23
564.59
686.19
814.77
918.33
965.45
932.21
815.19
634.72
424.48
217.52
37.11
-105.89
-211.72
-283.50
-326.47
-345.60
-345.69
-332.35
-311.99
-291.09
-274.99
-267.07
-264.92
-263.45
-257.22
-243.01
-221.53
-196.47
-172.57
-153.67
-141.78
-135.05
-129.81
-122.14
-109.74
-92.84
-73.65
-55.24
-40.03
-29.32
-22.54
-18.17
-14.51
-10.70
-7.23
-5.13
-6.39
-12.06
-22.24
-36.26
-52.82
-70.31
-87.25
-102.64
-114.60
-123.00
-129.01
-131.63
-130.53
-125.76
-117.66
-106.77
-93.90
-79.67
-64.53
-48.60
-31.72
-14.23
3.34
20.41
36.61
51.12
63.79
75.20
86.19
97.41
108.42
118.09
125.02
128.20
125.98
118.32
107.19
95.29
84.95
76.75
69.71
62.05
52.03
36.20
12.60
-14.38
-40.27
-61.76
-78.21
-91.13
-103.18
-117.43
-139.90
-174.97
-222.88
-279.80
-338.62
-391.11
-429.81
-450.31
-432.48
-372.82
-286.89
-199.70
-130.05
-83.00
-54.01
-36.26
-25.10
-18.76
-19.35
-27.67
-40.78
-53.51
-61.41
-62.89
-58.79
-51.18
-43.30
-36.30
-29.71
-20.73
-5.66
17.97
50.05
88.39
129.86
168.14
198.50
218.68
229.29
232.75
231.54
227.17
220.23
210.84
198.96
185.11
169.86
154.25
139.52
126.52
115.34
105.66
96.92
88.28
79.80
71.36
63.02
54.81
46.66
38.19
29.25
21.58
13.37
4.31
-5.81
-16.99
-29.09
-41.83
-54.93
-67.26
-77.70
-85.99
-91.76
-95.21
-96.79
-97.13
-96.94
-97.00
-96.94
-95.96
-94.06
-91.10
-87.34
-83.24
-79.29
-75.85
-73.25
-70.30
-64.96
-56.31
-43.76
-27.25
-6.81
17.94
48.18
71.19
80.89
77.50
64.22
45.84
25.87
5.84
-14.45
-36.05
-53.37
-68.56
-81.88
-93.67
-102.61
-108.07
-110.53
-110.98
-109.56
-104.68
-100.98
-97.75
-94.34
-87.06
-74.27
-57.52
-40.42
-25.96
-15.23
-7.63
-0.02
9.91
29.37
62.15
106.50
156.73
207.27
254.94
298.53
339.09
377.34
420.97
473.85
533.17
591.35
641.26
679.04
703.39
715.02
667.35
543.49
363.98
172.39
4.17
-126.55
-220.85
-286.12
-330.52
-361.27
-376.33
-375.04
-361.58
-342.87
-324.00
-306.44
-289.94
-274.33
-260.37
-243.27
-220.31
-192.98
-164.81
-137.86
-112.39
-88.41
-67.12
-50.51
-35.96
-20.08
-4.55
10.42
26.57
46.18
70.70
100.26
134.46
174.98
222.79
275.11
314.58
323.68
294.07
232.72
156.66
82.43
19.84
-27.24
-63.70
-90.67
-103.62
-96.26
-65.72
-16.61
39.99
87.20
110.01
101.46
66.00
16.63
-32.18
-71.32
-100.48
-127.33
-161.65
-208.48
-264.67
-319.42
-358.95
-372.13
-353.90
-306.39
-239.10
-165.09
-97.17
-44.91
-13.28
-3.28
-12.72
-36.83
-62.51
-76.07
-68.87
-43.09
-7.72
29.14
63.54
94.43
121.42
143.54
156.72
158.76
149.00
129.76
105.13
78.67
51.78
23.58
-2.15
-24.84
-44.77
-63.07
-79.71
-93.45
-102.98
-107.70
-107.73
-103.73
-98.16
-93.05
-90.67
-91.92
-96.23
-102.35
-108.74
-113.74
-116.00
-118.50
-120.38
-122.33
-125.19
-129.45
-135.66
-144.68
-157.10
-172.30
-188.13
-199.79
-202.21
-191.50
-166.67
-131.14
-91.60
-55.28
-27.11
-8.43
3.24
11.67
17.90
22.62
25.65
26.59
25.54
23.26
20.56
17.92
14.66
9.70
2.31
-7.45
-18.62
-29.48
-38.16
-43.41
-44.91
-43.57
-41.01
-38.62
-37.40
-37.58
-38.63
-39.65
-39.80
-38.60
-36.06
-32.55
-28.42
-23.90
-19.08
-13.95
-8.52
-3.03
2.00
5.86
7.77
7.21
4.01
-1.68
-9.37
-18.44
-28.24
-38.23
-48.00
-57.25
-65.77
-73.31
-79.67
-84.63
-88.03
-89.78
-89.89
-88.41
-85.41
-80.89
-74.74
-66.75
-56.73
-44.61
-30.59
-15.20
0.74
16.33
30.77
43.57
54.62
64.09
72.26
79.25
84.99
89.23
91.77
92.76
92.86
93.22
95.21
100.01
108.23
119.71
133.69
149.11
164.99
180.83
196.74
213.47
232.36
255.06
282.84
315.56
350.89
384.04
408.72
419.15
412.21
388.73
353.33
312.70
273.29
239.49
212.95
193.11
178.45
167.57
159.63
154.30
151.51
151.19
153.36
158.30
166.51
178.49
194.28
213.02
232.95
251.92
268.17
280.78
289.61
294.64
295.35
290.63
279.47
261.89
239.66
215.90
193.94
175.96
162.32
151.88
143.17
135.32
128.41
122.84
118.42
113.78
106.52
94.02
74.60
48.21
16.50
-17.90
-52.32
-84.98
-115.45
-144.62
-174.49
-207.74
-247.07
-294.00
-347.45
-402.65
-451.57
-484.89
-495.27
-480.24
-443.26
-392.27
-336.51
-283.18
-235.62
-193.67
-155.70
-120.63
-89.16
-63.56
-46.50
-39.80
-44.08
-59.01
-83.48
-115.42
-151.20
-185.21
-210.25
-219.22
-207.37
-174.17
-123.52
-62.29
1.86
62.27
113.78
152.13
173.21
173.51
151.63
110.07
55.95
-0.06
-46.32
-73.33
-76.07
-55.02
-15.81
32.49
79.59
116.51
137.71
142.27
133.49
116.90
97.58
78.19
58.69
37.77
14.91
-8.20
-27.91
-40.32
-43.26
-37.36
-25.75
-12.55
-1.21
6.48
10.31
11.12
10.13
8.59
7.49
7.12
6.58
3.71
-4.38
-19.93
-43.19
-71.82
-101.43
-127.07
-144.81
-152.91
-151.93
-144.19
-132.98
-121.69
-113.17
-109.30
-110.71
-116.96
-127.06
-139.94
-154.57
-169.79
-183.83
-194.19
-198.30
-194.63
-183.70
-168.32
-152.53
-140.02
-132.60
-129.60
-128.30
-125.03
-116.38
-100.12
-75.65
-44.14
-8.28
28.32
61.79
88.69
106.47
113.75
110.36
97.41
77.21
52.97
28.32
6.59
-9.86
-19.91
-23.68
-22.27
-17.50
-11.66
-7.12
-5.76
-8.32
-14.20
-21.72
-28.75
-33.51
-34.77
-31.75
-23.94
-11.19
5.71
24.68
42.62
56.55
65.03
69.16
72.10
77.59
88.21
104.43
124.91
147.63
170.86
193.30
213.43
228.82
236.16
232.25
215.49
186.92
150.18
110.28
71.78
37.52
8.08
-17.66
-41.47
-64.89
-88.79
-113.41
-138.77
-164.89
-191.79
-219.17
-245.91
-269.97
-288.51
-298.48
-297.50
-284.48
-259.94
-225.79
-184.79
-140.02
-94.55
-51.19
-12.23
20.85
47.74
69.27
86.84
101.44
112.87
119.53
119.13
109.77
91.05
64.41
32.80
-0.05
-30.52
-55.71
-73.86
-84.30
-87.21
-83.17
-72.78
-56.48
-34.60
-7.89
22.19
53.39
83.04
108.75
129.01
143.33
151.80
154.66
152.10
144.80
134.52
124.39
118.36
119.94
130.74
149.68
173.20
196.34
214.58
225.19
227.95
224.67
218.17
211.02
204.72
199.44
194.42
188.62
181.29
172.04
160.67
146.66
128.98
106.43
78.35
45.23
8.66
-29.37
-67.44
-105.34
-143.72
-182.93
-221.79
-257.10
-284.48
-300.25
-303.62
-297.87
-289.66
-286.66
-294.11
-312.15
-335.10
-353.38
-357.08
-339.74
-300.43
-243.44
-175.87
-104.59
-34.26
32.91
95.89
153.26
202.31
239.41
261.16
265.76
253.55
226.68
188.23
141.41
89.25
34.89
-17.72
-63.71
-98.04
-117.14
-120.56
-111.75
-97.44
-85.52
-82.38
-90.80
-109.27
-132.92
-155.46
-171.05
-175.63
-167.26
-145.86
-112.51
-68.75
-16.34
42.45
104.20
163.66
213.75
246.89
257.32
243.49
209.18
162.42
112.95
68.91
34.74
10.96
-4.22
-12.81
-15.71
-12.77
-3.95
9.44
24.41
37.02
44.00
44.02
38.36
30.20
23.08
19.29
19.05
20.62
21.46
19.53
14.24
6.42
-2.22
-10.04
-16.00
-19.76
-21.37
-20.81
-17.90
-12.34
-4.13
6.33
18.20
30.46
42.22
52.96
62.51
70.93
78.32
84.68
89.97
94.19
97.44
99.80
101.15
101.08
98.90
93.95
85.75
74.15
59.19
40.98
19.76
-3.90
-28.75
-52.90
-74.15
-90.77
-102.16
-109.14
-113.78
-118.49
-125.15
-134.23
-144.63
-154.06
-159.99
-160.68
-155.97
-147.23
-136.80
-126.88
-118.60
-111.76
-105.13
-97.27
-87.17
-74.38
-58.88
-40.90
-21.03
-0.44
19.04
35.49
47.79
56.44
63.70
72.83
86.57
105.72
128.61
151.54
170.27
181.77
185.14
181.71
174.22
165.55
157.53
150.47
143.28
134.34
122.48
107.25
88.99
68.52
46.82
25.08
5.26
-10.08
-17.79
-14.98
-1.04
22.11
50.43
79.24
104.89
126.26
143.73
158.71
172.30
182.70
186.12
178.61
158.28
126.53
88.68
50.16
15.77
-11.42
-32.75
-51.72
-71.49
-93.01
-114.87
-133.35
-147.73
-159.32
-170.71
-187.60
-215.45
-256.70
-309.47
-368.27
-424.50
-473.59
-513.52
-527.22
-502.04
-435.09
-336.85
-226.55
-134.51
-64.48
-14.10
20.15
42.41
57.46
67.90
75.49
80.48
81.21
76.74
64.52
45.25
24.29
7.24
-2.14
-2.86
3.78
16.00
34.09
56.95
82.80
108.37
127.03
130.92
114.78
78.74
28.89
-24.15
-71.22
-106.73
-129.51
-142.52
-149.98
-154.21
-154.40
-147.51
-130.29
-102.69
-67.94
-31.26
2.13
29.20
50.14
67.55
84.58
103.22
123.06
142.11
158.28
170.61
179.44
185.76
190.05
191.64
188.94
180.47
165.91
146.52
124.69
102.93
83.04
65.63
50.57
37.54
26.35
16.92
8.85
1.18
-7.39
-18.01
-31.09
-45.90
-60.72
-73.39
-81.97
-85.27
-83.03
-75.79
-64.61
-50.77
-35.72
-20.93
-7.73
2.92
10.71
16.02
19.67
22.48
24.84
26.52
26.81
24.80
19.77
11.53
0.69
-11.36
-22.69
-31.52
-36.79
-38.53
-37.61
-35.10
-31.49
-26.42
-19.08
-8.99
3.19
15.58
25.62
31.15
31.21
26.25
17.63
6.87
-5.02
-17.62
-30.77
-44.06
-56.45
-66.38
-72.12
-72.43
-67.02
-56.68
-43.14
-28.52
-14.79
-3.30
5.43
11.60
15.73
18.35
19.68
19.63
17.96
14.62
9.99
4.93
0.58
-2.04
-2.47
-1.01
1.41
3.57
4.59
4.42
3.84
4.20
6.58
11.23
17.22
22.75
25.83
25.08
20.25
12.39
3.58
-3.67
-6.99
-4.91
2.77
15.02
29.87
45.13
58.99
70.41
79.13
85.34
89.28
90.95
89.95
85.58
77.21
64.61
48.30
29.76
11.19
-4.96
-16.63
-22.78
-23.57
-20.35
-15.23
-10.65
-8.87
-11.36
-18.45
-29.06
-41.01
-51.69
-58.87
-61.35
-59.09
-52.90
-43.84
-32.85
-20.64
-7.77
5.23
18.03
30.61
43.32
56.54
70.20
83.41
94.58
102.15
105.41
105.05
103.04
101.87
103.55
108.95
117.84
129.57
143.64
159.76
177.19
193.82
206.01
209.31
200.21
177.83
144.58
105.29
65.30
28.45
-4.11
-33.72
-62.87
-93.51
-125.92
-158.43
-187.89
-210.45
-222.33
-220.64
-204.10
-173.63
-132.33
-84.83
-36.16
9.63
50.10
84.49
113.27
137.38
157.93
176.24
193.93
212.73
233.68
256.15
277.15
291.96
295.65
285.17
260.73
225.95
186.62
148.70
116.42
91.35
72.74
58.57
46.85
36.43
27.08
19.07
12.57
7.32
2.48
-3.09
-10.61
-20.99
-34.66
-51.57
-71.39
-93.73
-118.46
-145.76
-176.03
-209.77
-247.56
-290.19
-338.67
-393.62
-454.16
-516.75
-574.91
-620.37
-645.44
-645.70
-621.62
-578.27
-523.30
-464.19
-406.18
-351.72
-301.26
-254.59
-211.85
-173.65
-140.67
-113.03
-90.11
-70.77
-53.78
-38.17
-23.32
-8.70
6.51
23.53
43.65
67.23
92.95
117.54
136.65
146.54
145.77
135.99
121.27
106.34
94.78
87.98
85.43
85.72
87.68
90.76
94.75
99.13
102.84
104.51
103.08
98.37
91.10
82.54
73.93
66.03
59.10
53.00
47.54
42.68
38.54
35.37
33.41
32.75
33.34
35.06
37.75
41.24
45.25
49.39
53.14
56.01
57.68
58.20
58.04
57.90
58.48
60.19
62.96
66.27
69.41
71.72
72.91
73.16
73.05
73.29
74.42
76.65
79.78
83.28
86.43
88.40
88.35
85.55
79.68
71.10
60.94
50.89
42.63
37.18
34.51
33.66
33.27
32.33
30.64
28.73
27.42
27.18
27.81
28.48
28.31
26.87
24.45
21.94
20.31
20.06
20.98
22.25
22.91
22.23
19.99
16.37
11.67
6.21
0.35
-5.31
-9.82
-12.03
-10.99
-6.43
1.02
9.96
18.61
25.42
29.39
30.15
27.80
22.73
15.50
6.94
-1.77
-9.19
-13.89
-14.96
-12.34
-6.87
0.00
6.76
12.27
15.82
17.10
15.96
12.42
6.87
0.33
-5.55
-9.05
-8.89
-4.93
1.69
8.87
14.34
16.54
15.22
11.65
8.08
6.90
9.56
15.93
24.24
31.67
35.46
33.97
27.42
17.75
7.96
1.07
-0.78
3.27
12.82
26.60
42.80
59.37
74.20
85.43
91.80
93.25
91.16
88.14
87.29
91.02
100.23
114.08
130.47
146.97
161.61
173.16
181.03
185.17
186.24
186.13
187.74
194.10
206.60
223.54
240.03
249.60
247.02
230.79
203.87
172.37
142.73
119.15
102.31
90.04
79.06
66.77
52.11
35.40
17.48
-1.14
-20.52
-41.31
-64.26
-89.68
-117.19
-145.99
-175.52
-205.84
-237.41
-270.12
-302.16
-329.50
-346.93
-349.97
-337.03
-310.42
-275.43
-238.20
-203.41
-173.45
-148.94
-130.24
-118.32
-114.36
-118.32
-127.73
-137.89
-143.52
-141.34
-131.95
-119.84
-111.63
-112.99
-125.98
-148.23
-174.25
-198.08
-216.02
-227.96
-236.83
-246.50
-259.37
-274.73
-288.71
-295.61
-290.01
-268.72
-231.87
-183.18
-129.24
-78.12
-37.48
-12.36
-3.75
-8.08
-18.68
-28.21
-31.43
-27.09
-17.98
-9.10
-4.95
-7.23
-14.16
-21.62
-25.35
-23.01
-15.03
-3.89
7.48
17.28
25.44
33.05
40.96
48.60
53.72
53.33
45.29
29.73
9.57
-10.27
-24.33
-28.39
-20.62
-1.89
24.75
55.09
84.70
109.68
127.15
135.47
134.36
124.93
109.39
90.73
72.04
55.88
43.70
35.62
30.81
28.23
27.45
29.05
34.16
43.50
56.39
70.55
82.85
90.66
92.96
90.60
85.49
79.49
73.51
67.54
61.23
54.67
48.64
44.40
43.00
44.59
48.27
52.26
54.52
53.37
48.14
39.49
29.32
20.11
13.98
11.75
12.62
14.62
15.55
14.08
10.35
5.69
1.93
0.35
1.10
3.28
5.43
6.42
5.80
3.89
1.25
-1.83
-5.61
-10.61
-17.18
-24.89
-32.42
-38.05
-40.42
-39.21
-35.25
-30.14
-25.30
-21.39
-18.11
-14.75
-10.80
-6.53
-2.79
-0.51
0.01
-0.63
-1.23
-0.73
1.07
3.42
5.02
4.92
3.09
0.48
-1.55
-2.01
-0.69
1.89
4.94
7.98
10.91
13.83
16.70
19.16
20.70
20.99
20.14
18.61
16.93
15.37
13.83
12.09
10.03
7.91
6.22
5.36
5.42
6.09
6.86
7.27
7.20
6.77
6.24
5.76
5.23
4.43
3.15
1.44
-0.40
-1.93
-2.81
-2.92
-2.44
-1.73
-1.11
-0.79
-0.76
-0.81
-0.69
-0.12
1.04
2.65
4.34
5.56
5.83
5.00
3.37
1.64
0.56
0.63
1.80
3.60
5.43
6.83
7.70
8.18
8.36
8.20
7.47
5.92
3.56
0.64
-2.28
-4.62
-5.94
-6.14
-5.41
-4.17
-2.94
-2.12
-1.90
-2.25
-2.93
-3.66
-4.14
-4.15
-3.60
-2.52
-1.10
0.37
1.52
2.09
2.05
1.61
1.11
0.82
0.78
0.79
0.55
-0.10
-1.07
-2.06
-2.72
-2.88
-2.62
-2.22
-1.91
-1.71
-1.43
-0.71
0.73
2.94
5.65
8.32
10.35
11.22
10.72
8.98
6.43
3.70
1.38
-0.08
-0.48
0.11
1.39
2.94
4.33
5.30
5.79
6.00
6.24
6.78
7.71
8.94
10.25
11.48
12.55
13.55
14.56
15.61
16.64
17.53
18.21
18.63
18.80
18.73
18.38
17.70
16.69
15.36
13.82
12.14
10.37
8.46
6.29
3.76
0.83
-2.29
-5.19
-7.36
-8.36
-8.09
-6.90
-5.47
-4.54
-4.53
-5.43
-6.82
-8.22
-9.30
-10.05
-10.63
-11.18
-11.63
-11.77
-11.39
-10.50
-9.33
-8.21
-7.31
-6.58
-5.71
-4.40
-2.50
-0.14
2.34
4.54
6.09
6.79
6.59
5.61
4.13
2.51
1.14
0.29
0.06
0.35
0.91
1.48
1.90
2.11
2.12
1.95
1.58
0.96
0.07
-1.08
-2.47
-4.12
-6.11
-8.55
-11.43
-14.51
-17.32
-19.29
-20.03
-19.55
-18.36
-17.21
-16.82
-17.44
-18.80
-20.18
-20.77
-20.05
-17.96
-14.82
-11.06
-6.99
-2.66
2.03
7.06
12.17
16.74
20.09
21.70
21.57
20.20
18.37
16.81
15.83
15.28
14.68
13.60
11.91
9.86
7.97
6.75
6.42
6.89
7.83
8.84
9.66
10.22
10.56
10.80
10.99
11.14
11.16
10.97
10.54
9.88
9.14
8.49
8.22
8.61
9.85
11.89
14.36
16.64
17.94
17.69
15.65
12.05
7.51
2.87
-1.12
-3.83
-4.97
-4.56
-2.89
-0.48
2.06
4.20
5.63
6.29
6.42
6.34
6.32
6.54
7.00
7.60
8.16
8.48
8.33
7.57
6.20
4.42
2.63
1.32
0.89
1.46
2.81
4.44
5.77
6.41
6.30
5.78
5.38
5.61
6.68
8.42
10.26
11.46
11.34
9.56
6.32
2.32
-1.35
-3.61
-3.72
-1.58
2.14
6.22
9.24
10.06
8.29
4.43
-0.28
-4.29
-6.32
-5.83
-3.19
0.55
4.09
6.42
7.12
6.42
4.88
3.09
1.41
-0.04
-1.21
-2.07
-2.51
-2.45
-1.99
-1.43
-1.12
-1.33
-2.07
-3.07
-3.90
-4.19
-3.80
-2.84
-1.60
-0.39
0.56
1.20
1.58
1.89
2.32
3.01
4.00
5.17
6.29
7.11
7.46
7.29
6.72
5.98
5.27
4.72
4.38
4.23
4.23
4.41
4.79
5.37
6.04
6.62
6.86
6.60
5.79
4.48
2.84
1.04
-0.72
-2.32
-3.67
-4.65
-5.17
-5.15
-4.58
-3.51
-2.09
-0.52
1.04
2.50
3.81
4.98
5.95
6.64
6.96
6.89
6.50
6.01
5.67
5.64
5.89
6.27
6.54
6.57
6.36
6.03
5.77
5.67
5.72
5.87
5.99
6.04
5.96
5.71
5.22
4.47
3.46
2.30
1.20
0.31
-0.30
-0.69
-1.02
-1.45
-2.03
-2.71
-3.33
-3.67
-3.57
-2.97
-1.88
-0.39
1.37
3.20
4.95
6.47
7.72
8.72
9.52
10.20
10.81
11.35
11.85
12.34
12.92
13.68
14.66
15.87
17.20
18.53
19.75
20.82
21.73
22.48
23.04
23.35
23.42
23.36
23.39
23.71
24.31
24.86
24.77
23.46
20.71
16.82
12.55
8.76
6.04
4.46
3.71
3.32
2.99
2.72
2.57
2.56
2.53
2.25
1.66
0.99
0.67
1.07
2.28
4.03
5.91
7.60
9.04
10.38
11.76
13.12
14.16
14.37
13.32
10.73
6.62
1.31
-4.58
-10.27
-14.87
-17.70
-18.45
-17.31
-15.00
-12.48
-10.65
-10.08
-10.85
-12.67
-15.05
-17.50
-19.67
-21.32
-22.32
-22.57
-22.03
-20.74
-18.87
-16.71
-14.54
-12.60
-10.97
-9.68
-8.75
-8.28
-8.41
-9.21
-10.55
-12.04
-13.15
-13.40
-12.64
-11.12
-9.35
-7.89
-6.93
-6.20
-5.09
-3.04
0.17
4.15
8.01
10.75
11.65
10.61
8.22
5.54
3.66
3.24
4.22
5.79
6.85
6.40
4.04
-0.04
-5.19
-10.69
-15.98
-20.70
-24.49
-26.86
-27.33
-25.72
-22.42
-18.44
-15.01
-13.09
-12.96
-14.20
-15.92
-17.30
-17.80
-17.29
-15.88
-13.83
-11.38
-8.81
-6.45
-4.61
-3.48
-2.98
-2.75
-2.33
-1.31
0.43
2.68
5.08
7.20
8.80
9.84
10.49
11.00
11.57
12.26
12.91
13.23
12.93
11.92
10.39
8.78
7.64
7.28
7.67
8.41
8.98
8.95
8.24
7.06
5.77
4.72
4.04
3.67
3.41
2.96
2.12
0.76
-0.98
-2.80
-4.20
-4.75
-4.23
-2.82
-1.05
0.45
1.20
1.05
0.25
-0.71
-1.36
-1.41
-0.89
-0.02
0.88
1.57
2.01
2.23
2.34
2.42
2.47
2.48
2.47
2.52
2.73
3.20
3.95
4.94
6.04
7.09
7.98
8.63
9.09
9.48
9.98
10.69
11.59
12.45
12.94
12.77
11.86
10.41
8.82
7.51
6.72
6.40
6.26
5.94
5.17
3.93
2.42
1.00
-0.02
-0.47
-0.38
0.08
0.65
1.10
1.30
1.23
0.97
0.63
0.37
0.27
0.38
0.70
1.18
1.72
2.21
2.48
2.38
1.76
0.57
-1.12
-3.14
-5.22
-7.15
-8.81
-10.18
-11.25
-11.99
-12.29
-12.00
-11.07
-9.61
-7.94
-6.45
-5.45
-5.04
-5.14
-5.57
-6.23
-7.17
-8.58
-10.65
-13.36
-16.46
-19.56
-22.23
-24.22
-25.49
-26.21
-26.52
-26.57
-26.36
-25.84
-24.87
-23.24
-20.67
-16.90
-11.85
-5.82
0.52
6.23
10.44
12.71
13.19
12.52
11.52
10.76
10.41
10.24
9.94
9.37
8.68
8.18
8.07
8.25
8.36
7.91
6.67
4.78
2.71
1.03
0.09
-0.13
-0.01
-0.03
-0.52
-1.52
-2.76
-3.91
-4.67
-4.94
-4.79
-4.32
-3.65
-2.82
-1.85
-0.75
0.41
1.59
2.80
4.14
5.68
7.46
9.37
11.19
12.69
13.75
14.38
14.66
14.66
14.42
13.91
13.14
12.26
11.56
11.33
11.70
12.50
13.31
13.66
13.38
12.73
12.37
13.06
15.27
18.95
23.53
28.23
32.44
36.00
39.19
42.37
45.60
48.46
50.25
50.55
49.58
48.38
48.23
49.99
53.50
57.61
60.85
62.33
62.38
62.35
63.89
67.92
74.12
81.25
87.81
92.84
96.20
98.18
98.89
97.72
93.56
85.46
73.61
59.88
47.34
39.08
36.58
38.91
42.94
44.84
41.95
34.04
23.23
12.74
5.01
0.49
-2.39
-6.01
-12.05
-20.62
-30.39
-39.68
-47.75
-55.59
-65.80
-81.72
-106.16
-140.19
-182.42
-228.87
-273.49
-309.35
-330.21
-332.11
-314.46
-280.22
-234.95
-184.98
-135.63
-90.08
-49.33
-13.08
19.12
47.00
69.46
85.10
93.07
93.58
87.96
78.15
65.86
51.91
36.00
17.14
-5.58
-32.29
-61.92
-92.43
-121.44
-146.86
-167.18
-181.52
-189.39
-190.66
-185.83
-176.37
-164.75
-153.82
-145.87
-141.61
-139.94
-138.48
-134.73
-127.19
-115.84
-101.79
-86.42
-70.68
-54.92
-39.20
-23.84
-9.64
2.48
12.02
19.35
25.64
32.24
39.95
48.55
57.01
64.00
68.68
71.01
71.65
71.43
70.86
69.79
67.71
64.04
58.71
52.29
45.78
40.16
35.96
33.11
30.93
28.50
24.98
19.99
13.78
7.35
2.15
-0.25
1.17
6.54
14.94
24.71
34.04
41.52
46.43
48.68
48.66
46.93
44.25
41.50
39.69
39.65
41.73
45.51
49.87
53.33
54.64
53.17
49.05
42.94
35.61
27.57
18.95
9.71
-0.17
-10.49
-20.85
-30.74
-39.64
-47.15
-52.92
-56.83
-58.98
-59.88
-60.27
-60.92
-62.29
-64.29
-66.30
-67.41
-66.77
-63.94
-58.96
-52.28
-44.58
-36.51
-28.47
-20.52
-12.41
-3.74
5.81
16.34
27.57
39.00
50.00
60.01
68.56
75.34
80.12
82.74
83.19
81.75
79.03
75.95
73.53
72.54
73.20
75.04
77.06
78.19
77.72
75.59
72.36
68.81
65.42
62.02
57.77
51.45
42.04
29.18
13.48
-3.62
-20.26
-34.63
-45.49
-52.42
-55.79
-56.57
-55.93
-54.90
-54.07
-53.59
-53.14
-52.19
-50.04
-46.01
-39.48
-30.08
-17.89
-3.56
11.61
25.88
37.51
45.29
48.96
49.29
47.74
45.85
44.63
44.18
43.84
42.58
39.56
34.53
27.86
20.34
12.84
6.08
0.55
-3.48
-5.95
-6.98
-6.91
-6.24
-5.43
-4.67
-3.76
-2.17
0.79
5.59
12.39
20.96
30.83
41.44
52.14
62.26
71.02
77.64
81.58
82.77
81.69
79.17
75.99
72.46
68.18
62.35
54.19
43.48
30.83
17.58
5.39
-4.28
-10.63
-13.62
-13.94
-12.62
-10.62
-8.45
-6.03
-2.80
1.87
8.24
15.89
23.82
30.76
35.76
38.50
39.27
38.74
37.36
35.09
31.40
25.61
17.40
7.31
-3.33
-12.79
-19.65
-23.51
-25.08
-25.66
-26.25
-26.80
-26.10
-22.40
-14.43
-2.18
12.97
28.88
43.72
56.74
68.41
79.87
92.01
104.96
117.96
130.02
140.63
150.17
159.68
169.98
180.54
188.83
190.76
182.12
160.33
125.79
81.79
33.32
-14.85
-59.62
-99.89
-136.02
-168.70
-198.29
-224.91
-249.17
-272.68
-297.56
-325.18
-354.65
-382.45
-403.43
-412.79
-408.03
-389.66
-360.45
-323.89
-282.53
-237.42
-188.54
-135.91
-80.70
-25.62
25.49
68.77
101.48
122.88
134.44
139.32
141.37
143.80
148.26
154.74
162.09
168.90
174.12
177.02
176.96
173.07
164.30
149.83
129.68
104.87
77.35
49.61
24.04
2.47
-14.20
-25.94
-33.41
-37.47
-38.87
-38.10
-35.48
-31.39
-26.36
-21.09
-16.19
-11.99
-8.48
-5.53
-3.22
-1.92
-2.20
-4.45
-8.48
-13.52
-18.38
-21.94
-23.55
-23.17
-21.38
-19.06
-17.10
-16.11
-16.25
-17.21
-18.33
-18.94
-18.69
-17.66
-16.38
-15.54
-15.58
-16.62
-18.42
-20.62
-22.97
-25.39
-27.91
-30.52
-33.14
-35.58
-37.63
-39.01
-39.53
-39.04
-37.60
-35.50
-33.23
-31.33
-30.10
-29.49
-29.06
-28.20
-26.42
-23.61
-20.07
-16.41
-13.25
-10.98
-9.64
-8.90
-8.23
-7.14
-5.43
-3.35
-1.42
-0.19
0.14
-0.10
-0.10
1.08
4.04
8.82
14.81
21.03
26.56
30.90
34.08
36.71
39.54
43.13
47.52
52.11
55.82
57.59
56.89
53.98
49.95
46.39
44.92
46.75
52.54
62.19
74.73
88.11
99.30
104.98
102.72
92.41
76.81
61.08
50.88
50.26
60.32
79.31
104.15
132.27
162.62
195.25
229.72
263.59
292.05
309.15
310.09
293.17
260.37
216.42
166.87
116.23
67.12
20.61
-22.74
-61.93
-95.20
-120.62
-136.96
-144.63
-145.91
-144.45
-144.15
-147.92
-156.68
-169.13
-182.41
-193.37
-199.82
-201.20
-198.54
-193.62
-187.92
-182.02
-175.48
-167.30
-156.48
-142.37
-124.62
-102.93
-76.88
-46.13
-10.94
27.33
65.94
101.05
128.44
144.26
145.68
131.14
100.49
55.36
-0.42
-60.57
-116.87
-160.81
-185.91
-189.78
-174.92
-148.12
-118.29
-93.85
-80.40
-79.33
-87.79
-99.82
-108.42
-107.94
-95.78
-73.05
-43.67
-12.66
15.74
38.98
56.12
66.95
71.34
69.13
60.76
47.83
33.14
19.82
10.16
4.66
1.91
-0.63
-5.31
-13.14
-23.30
-33.51
-41.03
-43.90
-41.80
-36.05
-28.96
-22.78
-18.78
-17.02
-16.62
-16.49
-15.93
-14.85
-13.68
-12.97
-13.11
-14.22
-16.17
-18.64
-21.02
-22.45
-21.82
-18.13
-10.87
-0.34
12.31
25.40
37.21
46.44
52.39
55.04
54.87
52.71
49.59
46.59
44.69
44.56
46.43
50.06
54.83
59.94
64.56
67.97
69.77
69.91
68.83
67.30
66.21
66.25
67.69
70.24
73.20
75.71
76.97
76.52
74.33
70.90
67.11
64.00
62.37
62.50
64.16
66.87
70.34
74.72
80.47
87.82
96.18
104.03
109.19
109.66
104.37
93.66
79.09
63.03
48.05
36.48
30.11
30.09
36.58
48.43
63.09
77.09
87.07
90.97
88.81
82.76
76.31
72.97
74.99
82.52
93.70
105.27
113.67
116.03
110.75
97.62
77.58
52.10
22.53
-10.35
-46.33
-85.41
-127.11
-170.03
-211.83
-249.72
-280.95
-303.20
-314.95
-315.61
-306.03
-289.31
-271.32
-259.86
-262.19
-281.68
-315.37
-354.20
-386.29
-401.82
-396.86
-374.22
-341.04
-305.07
-271.51
-242.18
-216.52
-193.26
-171.19
-148.89
-124.32
-95.12
-59.99
-20.20
20.18
55.61
81.63
96.72
102.67
103.42
102.84
103.05
104.01
104.27
102.35
97.75
91.32
84.73
79.71
77.44
78.41
82.48
89.03
96.83
104.16
109.06
109.85
105.60
96.57
83.96
69.24
53.55
37.29
20.20
1.77
-18.09
-38.44
-56.80
-69.05
-70.28
-56.22
-25.13
21.01
76.39
132.79
181.73
217.10
236.48
241.03
234.29
220.52
203.78
187.53
174.43
165.48
160.54
158.54
157.93
157.49
156.64
155.80
156.50
160.31
167.20
176.62
187.60
198.85
208.48
213.68
211.41
200.17
179.76
149.88
111.90
68.31
22.07
-24.27
-69.49
-113.36
-155.03
-194.65
-235.18
-279.17
-327.77
-379.78
-432.10
-481.36
-524.82
-559.58
-565.71
-529.00
-445.74
-327.39
-195.16
-69.04
38.88
117.87
175.15
218.20
249.44
269.29
277.69
275.47
266.37
253.10
237.65
222.52
207.93
191.31
169.98
141.89
106.47
64.28
15.55
-40.07
-102.22
-170.80
-244.61
-318.90
-385.71
-435.85
-462.16
-462.64
-441.03
-404.58
-362.37
-322.30
-288.73
-262.52
-242.08
-225.12
-209.93
-195.65
-181.74
-168.26
-155.43
-143.36
-132.01
-121.33
-111.34
-102.17
-93.68
-85.12
-75.26
-62.49
-45.40
-23.33
3.47
34.02
66.90
100.50
133.01
162.33
186.23
202.73
210.71
210.26
202.50
189.22
172.26
153.25
133.68
115.04
98.90
86.65
79.18
76.53
78.13
83.07
90.48
99.54
109.37
118.75
126.24
130.43
130.40
126.02
117.93
107.39
95.90
85.17
77.04
73.51
76.30
86.14
102.03
121.09
139.13
152.09
157.42
154.99
146.88
136.37
126.62
119.71
116.35
116.16
118.13
120.92
123.00
122.80
119.14
111.65
101.07
89.06
77.62
68.41
62.33
59.42
59.09
60.53
62.90
65.47
67.67
69.03
69.33
68.67
67.47
66.42
66.19
67.21
69.47
72.44
75.27
77.30
78.51
79.75
82.51
88.20
97.26
108.76
120.44
129.61
134.24
133.96
130.25
125.83
123.49
124.88
129.97
137.17
144.04
148.22
148.01
142.68
132.33
117.71
99.89
80.07
59.38
38.69
18.36
-1.75
-22.16
-43.40
-65.63
-88.59
-111.81
-134.91
-158.02
-181.93
-208.15
-238.48
-274.40
-316.07
-361.43
-405.64
-441.67
-461.84
-460.02
-433.60
-384.38
-318.03
-242.34
-165.04
-92.12
-27.23
27.88
72.37
105.50
126.39
134.28
129.16
112.19
85.83
53.36
18.27
-16.44
-48.74
-77.76
-103.54
-126.50
-146.87
-164.28
-177.71
-185.87
-188.01
-184.56
-177.36
-169.24
-163.08
-160.92
-163.37
-169.61
-177.79
-185.43
-189.69
-187.57
-176.37
-154.67
-123.17
-85.18
-46.07
-11.67
13.48
27.53
31.53
28.46
21.79
14.38
8.15
4.44
4.72
10.66
23.77
44.48
71.56
102.14
132.48
159.15
179.87
193.78
200.99
201.91
196.80
185.72
169.00
147.63
123.39
98.53
75.20
54.92
38.30
25.07
14.39
5.31
-2.79
-9.78
-14.89
-17.02
-15.50
-10.69
-4.11
1.98
5.56
5.62
2.61
-2.00
-6.38
-9.21
-9.95
-8.83
-6.28
-2.67
1.79
6.87
12.09
16.67
19.76
20.88
20.16
18.36
16.62
15.88
16.52
18.15
19.82
20.40
18.98
15.21
9.26
1.79
-6.35
-14.33
-21.46
-27.30
-31.61
-34.27
-35.23
-34.42
-31.75
-27.15
-20.62
-12.33
-2.71
7.59
17.60
26.22
32.39
35.42
35.13
32.12
27.56
23.00
19.92
19.37
21.66
26.33
32.29
38.14
42.62
44.85
44.55
41.90
37.42
31.78
25.82
20.64
17.58
17.93
22.32
30.09
39.07
46.13
48.24
43.66
32.67
17.31
0.49
-15.30
-28.65
-39.34
-47.82
-54.48
-59.36
-62.16
-62.67
-61.02
-57.69
-53.25
-48.15
-42.57
-36.60
-30.41
-24.47
-19.43
-15.87
-14.04
-13.73
-14.33
-15.14
-15.68
-15.84
-15.81
-15.85
-16.11
-16.55
-17.09
-17.75
-18.70
-20.22
-22.60
-25.99
-30.42
-35.73
-41.61
-47.47
-52.49
-55.64
-56.05
-53.27
-47.53
-39.75
-31.29
-23.51
-17.31
-12.85
-9.48
-5.98
-1.03
6.27
15.93
26.99
37.92
47.36
54.82
60.93
67.02
74.25
82.79
91.56
98.76
102.80
103.14
100.54
96.62
92.97
90.48
89.13
88.40
87.92
87.91
89.11
92.24
97.36
103.55
109.10
112.07
111.06
105.74
96.89
86.01
74.68
64.02
54.32
45.12
35.51
24.66
12.19
-1.63
-15.94
-29.56
-41.42
-50.86
-57.72
-62.25
-64.74
-65.35
-64.01
-60.52
-54.81
-46.98
-37.26
-25.87
-12.83
1.93
18.46
36.48
55.35
74.03
91.32
106.07
117.39
124.68
127.71
126.71
122.50
116.43
110.20
105.42
103.01
102.88
103.73
103.42
99.52
89.97
73.52
49.94
19.94
-15.04
-52.91
-91.09
-126.67
-156.73
-178.85
-191.41
-193.90
-186.84
-171.60
-150.22
-125.22
-99.47
-75.80
-56.72
-43.83
-37.63
-37.62
-42.55
-50.92
-61.30
-72.42
-83.14
-92.40
-99.40
-103.74
-105.65
-105.90
-105.53
-105.41
-105.91
-106.81
-107.60
-107.63
-106.46
-103.76
-99.02
-91.72
-81.61
-69.47
-57.50
-48.88
-46.43
-51.10
-61.24
-73.26
-83.29
-88.94
-89.95
-87.57
-83.15
-77.11
-68.85
-57.63
-43.49
-27.57
-11.54
3.23
15.99
26.50
34.38
38.96
39.54
35.95
28.65
18.69
7.22
-4.80
-16.50
-27.02
-35.46
-41.09
-43.55
-42.98
-39.78
-34.23
-26.20
-14.97
0.48
21.16
47.49
78.91
113.36
147.16
175.32
192.41
194.02
178.25
146.93
105.70
62.96
27.89
7.95
6.79
23.03
50.69
81.02
105.29
117.48
115.67
102.03
81.25
58.50
37.81
21.36
9.69
2.42
-1.22
-2.06
-1.03
0.65
1.73
1.16
-1.29
-4.97
-8.49
-10.34
-9.46
-5.66
0.42
7.66
14.92
21.37
26.58
30.36
32.66
33.59
33.40
32.61
31.78
31.35
31.31
31.21
30.43
28.59
25.99
23.57
22.55
23.85
27.45
32.15
35.85
36.33
32.19
23.56
12.22
0.94
-7.70
-12.51
-14.28
-15.46
-19.07
-27.39
-41.11
-59.23
-79.49
-99.04
-114.95
-124.44
-125.29
-116.31
-97.96
-72.51
-43.65
-15.46
8.82
27.52
40.56
48.85
53.37
54.75
53.30
49.34
43.58
37.09
31.04
26.29
23.12
21.32
20.38
19.78
19.15
18.29
17.13
15.60
13.68
11.31
8.51
5.40
2.23
-0.61
-2.72
-3.76
-3.59
-2.33
-0.36
1.80
3.58
4.50
4.20
2.48
-0.66
-5.03
-10.14
-15.32
-19.86
-23.21
-25.14
-25.75
-25.35
-24.21
-22.48
-20.15
-17.21
-13.76
-10.09
-6.63
-3.78
-1.74
-0.50
0.20
0.62
0.96
1.27
1.48
1.47
1.22
0.76
0.21
-0.29
-0.63
-0.67
-0.33
0.46
1.64
3.00
4.19
4.87
4.81
4.04
2.83
1.51
0.37
-0.47
-1.06
-1.50
-1.83
-2.03
-2.01
-1.76
-1.36
-0.96
-0.73
-0.76
-1.05
-1.52
-2.07
-2.61
-3.07
-3.39
-3.57
-3.63
-3.69
-3.83
-4.14
-4.58
-5.01
-5.16
-4.76
-3.66
-1.92
0.19
2.25
3.84
4.62
4.48
3.58
2.24
0.85
-0.29
-1.07
-1.68
-2.46
-3.79
-5.86
-8.52
-11.35
-13.76
-15.21
-15.35
-14.11
-11.74
-8.70
-5.63
-3.10
-1.41
-0.28
1.12
4.02
9.44
17.65
27.82
38.16
46.58
51.46
52.30
49.76
45.43
41.01
37.75
36.15
36.06
37.06
38.84
41.40
44.99
50.06
56.82
65.18
74.68
84.74
94.79
104.43
113.42
121.62
129.40
137.24
145.65
154.55
162.73
167.63
165.91
154.78
133.53
105.13
75.23
50.46
35.86
32.84
38.74
48.20
55.48
56.36
49.88
37.34
21.30
4.60
-10.14
-20.40
-23.72
-18.19
-8.62
-1.00
-2.45
-17.94
-47.40
-85.55
-124.52
-157.11
-179.16
-190.22
-191.85
-186.78
-177.33
-164.96
-150.74
-135.89
-121.90
-110.23
-101.74
-95.72
-90.71
-84.92
-77.06
-67.01
-55.74
-44.76
-35.43
-28.49
-23.43
-19.12
-14.11
-7.27
1.68
12.16
23.08
33.21
41.59
47.82
51.92
54.16
54.88
54.03
51.54
47.40
41.83
35.37
28.93
23.60
20.38
20.11
22.76
28.04
35.40
44.17
53.70
63.48
73.16
82.58
91.78
100.29
107.95
114.81
120.95
126.60
132.00
137.39
142.98
149.00
154.53
158.98
162.01
163.36
162.79
159.74
153.18
141.29
127.67
113.24
98.77
85.04
72.84
62.86
55.41
50.43
47.51
46.19
44.59
41.56
36.76
30.64
23.98
17.35
10.91
4.40
-2.64
-12.74
-27.25
-45.83
-66.70
-87.67
-107.30
-125.28
-142.31
-159.60
-181.72
-211.11
-247.08
-286.34
-324.78
-359.68
-390.14
-416.85
-441.51
-471.30
-511.33
-562.87
-622.98
-686.09
-745.45
-793.74
-823.87
-830.54
-818.14
-792.45
-758.13
-717.47
-671.51
-621.36
-568.58
-515.08
-423.93
-283.01
-105.28
77.99
237.26
358.34
441.44
493.85
524.00
538.57
536.17
516.79
484.22
445.81
408.98
378.31
355.07
338.05
324.95
308.67
284.86
253.57
218.73
185.06
155.73
131.90
113.22
98.74
84.51
68.27
49.81
31.88
17.37
7.90
3.71
3.87
6.96
9.99
10.89
8.95
4.77
-0.77
-7.13
-13.79
-20.65
-27.69
-35.45
-44.23
-54.03
-64.50
-75.42
-86.67
-97.69
-108.00
-116.98
-123.97
-128.33
-129.56
-127.07
-120.16
-111.06
-100.36
-88.19
-74.27
-58.35
-40.49
-21.25
-1.67
16.94
33.48
47.94
60.95
73.70
87.43
102.95
120.23
138.49
156.50
173.13
188.23
202.32
216.53
232.42
251.56
275.23
303.68
335.43
366.78
392.41
406.43
404.45
385.29
351.72
309.58
265.83
226.27
194.09
169.80
151.93
138.40
127.51
118.53
111.41
106.31
102.97
100.44
97.30
92.12
84.09
73.22
60.12
45.40
29.23
11.38
-8.20
-28.73
-48.34
-64.51
-75.12
-79.44
-78.47
-74.60
-70.49
-68.13
-68.29
-70.56
-73.84
-76.96
-79.13
-80.02
-79.63
-78.12
-75.69
-72.53
-68.98
-65.42
-62.35
-60.18
-59.12
-59.04
-59.55
-60.20
-60.64
-60.83
-60.94
-61.39
-62.62
-64.91
-68.18
-71.99
-75.68
-78.69
-80.74
-81.81
-82.41
-83.44
-85.83
-90.08
-96.04
-102.87
-109.32
-114.12
-115.83
-113.67
-107.56
-97.90
-85.22
-70.24
-54.11
-38.66
-26.12
-17.44
-12.63
-10.42
-8.40
-3.72
6.14
22.90
47.63
80.94
123.74
174.70
228.89
278.00
312.62
325.74
315.63
286.45
239.74
181.94
121.32
65.30
18.26
-18.39
-44.62
-60.42
-65.87
-61.96
-50.38
-34.00
-16.11
0.52
14.39
25.53
34.69
42.58
49.77
55.90
60.04
61.02
57.95
50.84
40.67
29.01
17.37
6.79
-2.61
-11.25
-19.99
-29.81
-41.50
-55.67
-73.10
-95.00
-118.42
-141.15
-160.39
-173.07
-176.65
-170.00
-153.96
-131.19
-105.19
-79.08
-55.20
-34.33
-16.24
-0.49
13.15
24.77
34.64
43.43
52.06
60.70
68.98
75.94
80.32
81.13
78.09
71.59
62.32
50.79
36.96
20.97
3.52
-13.79
-28.70
-38.87
-42.65
-39.78
-31.71
-21.30
-11.76
-5.56
-3.49
-4.16
-4.38
0.07
12.86
35.41
66.24
101.22
134.67
160.88
175.61
177.04
165.90
144.85
116.41
83.13
47.53
12.18
-20.47
-48.62
-71.65
-90.18
-105.84
-122.75
-144.79
-174.18
-210.70
-251.93
-294.31
-333.79
-366.10
-387.36
-397.91
-399.69
-394.56
-382.95
-363.83
-336.10
-300.02
-257.72
-213.60
-177.81
-160.55
-167.96
-199.54
-248.71
-306.13
-363.15
-413.28
-427.64
-387.43
-290.57
-154.69
-7.02
130.58
247.51
341.77
415.75
473.23
513.91
536.77
543.09
536.85
524.10
511.14
500.36
491.95
485.08
475.79
458.87
431.91
395.58
353.71
310.60
269.12
230.73
195.81
161.82
121.72
74.91
21.55
-35.85
-94.02
-150.32
-202.66
-249.26
-289.73
-328.47
-369.32
-414.86
-464.74
-517.10
-570.49
-624.77
-680.84
-712.07
-700.84
-640.63
-539.00
-411.10
-272.74
-137.57
-16.85
81.46
154.27
199.68
220.88
224.06
216.48
204.07
190.39
177.34
166.53
159.74
155.00
149.99
142.44
131.44
117.20
100.86
84.11
68.87
56.99
47.47
38.91
29.89
19.82
9.00
-1.76
-11.41
-18.83
-23.16
-25.65
-27.11
-28.43
-30.22
-32.62
-35.33
-37.77
-39.27
-39.23
-37.74
-35.21
-32.10
-28.96
-26.31
-24.51
-23.85
-24.53
-26.72
-30.56
-36.13
-43.21
-51.52
-60.76
-70.53
-80.42
-90.06
-99.18
-107.63
-115.34
-121.82
-126.69
-129.67
-130.46
-128.75
-124.14
-116.06
-103.56
-89.36
-74.61
-60.04
-46.12
-33.12
-21.16
-10.31
-0.68
7.54
14.17
19.66
24.49
29.19
34.27
40.17
47.07
54.84
63.14
71.53
80.13
89.27
99.41
111.04
124.38
139.13
154.34
168.65
180.55
189.13
194.06
195.63
194.52
191.40
186.62
180.03
171.29
160.19
147.21
133.48
120.65
110.64
105.34
106.54
115.57
132.69
156.28
182.41
205.36
219.13
219.59
206.02
181.33
150.59
118.89
89.58
63.75
40.96
20.53
2.34
-13.16
-25.62
-35.43
-43.81
-52.24
-61.70
-72.26
-83.23
-93.62
-102.83
-111.05
-119.01
-127.46
-136.53
-145.55
-153.18
-158.10
-159.48
-157.36
-152.53
-146.25
-139.89
-134.56
-130.85
-128.71
-127.43
-125.96
-123.29
-118.85
-112.54
-104.50
-94.61
-82.20
-66.18
-45.51
-19.74
10.83
45.25
82.26
120.45
158.31
194.26
226.86
255.13
278.59
297.03
309.89
315.79
312.80
299.26
274.98
242.02
204.55
167.63
135.55
110.48
92.01
77.85
64.93
50.76
34.17
15.42
-4.27
-23.43
-40.84
-55.71
-67.53
-75.77
-79.75
-78.87
-72.97
-62.76
-49.85
-36.49
-24.98
-17.06
-13.55
-14.23
-18.03
-23.41
-28.67
-32.36
-33.61
-32.28
-28.91
-24.43
-19.76
-15.48
-11.79
-8.69
-6.31
-5.08
-5.59
-8.19
-12.67
-18.07
-22.99
-26.06
-26.47
-24.35
-20.66
-16.78
-14.05
-13.36
-14.96
-18.58
-23.51
-28.91
-33.92
-37.81
-40.09
-40.61
-39.52
-37.17
-33.97
-30.18
-25.86
-21.01
-15.63
-9.88
-4.10
1.36
6.25
10.50
14.16
17.33
19.99
22.04
23.28
23.56
22.86
21.37
19.45
17.53
15.91
14.69
13.71
12.60
10.99
8.62
5.50
1.89
-1.84
-5.27
-8.16
-10.46
-12.33
-14.07
-15.96
-18.18
-20.73
-23.49
-26.24
-28.81
-31.00
-32.63
-33.51
-33.40
-32.11
-29.59
-25.97
-21.47
-16.35
-10.82
-5.00
0.96
6.78
12.00
16.14
18.84
20.01
19.87
18.81
17.19
15.16
12.68
9.65
6.08
2.26
-1.30
-4.01
-5.50
-5.78
-5.21
-4.36
-3.73
-3.54
-3.71
-3.92
-3.83
-3.32
-2.50
-1.67
-1.09
-0.85
-0.75
-0.50
0.17
1.27
2.53
3.50
3.82
3.45
2.68
2.06
2.12
3.10
4.90
7.14
9.37
11.35
13.10
14.83
16.76
18.92
21.04
22.66
23.32
22.76
21.06
18.62
15.96
13.53
11.54
9.96
8.64
7.39
6.14
4.88
3.69
2.64
1.79
1.16
0.79
0.68
0.82
1.11
1.38
1.42
1.04
0.21
-0.99
-2.33
-3.52
-4.37
-4.84
-5.09
-5.39
-6.03
-7.24
-9.15
-11.78
-15.03
-18.70
-22.48
-25.96
-28.74
-30.51
-31.16
-30.74
-29.45
-27.45
-24.88
-21.79
-18.22
-14.23
-9.97
-5.62
-1.42
2.40
5.58
7.97
9.50
10.27
10.57
10.73
11.08
11.78
12.77
13.90
14.98
15.96
16.86
17.76
18.73
19.71
20.56
21.10
21.18
20.71
19.61
17.84
15.34
12.10
8.15
3.69
-1.02
-5.60
-9.67
-12.90
-15.13
-16.48
-17.34
-18.36
-20.15
-23.13
-27.31
-32.26
-37.30
-41.77
-45.29
-47.83
-49.64
-51.04
-52.26
-53.30
-54.02
-54.16
-53.37
-51.35
-47.85
-42.73
-36.09
-28.20
-19.51
-10.60
-2.03
5.64
11.98
16.68
19.64
21.04
21.30
20.96
20.53
20.30
20.32
20.42
20.41
20.20
19.81
19.38
19.05
18.89
18.87
18.92
18.97
19.00
19.04
19.10
19.22
19.33
19.34
19.13
18.69
18.03
17.28
16.56
15.94
15.39
14.76
13.91
12.78
11.48
10.29
9.57
9.56
10.27
11.47
12.79
13.90
14.68
15.17
15.58
16.04
16.59
17.06
17.26
17.05
16.41
15.47
14.36
13.16
11.86
10.38
8.65
6.76
4.90
3.34
2.26
1.67
1.41
1.17
0.69
-0.19
-1.43
-2.88
-4.38
-5.84
-7.21
-8.52
-9.73
-10.73
-11.39
-11.63
-11.49
-11.13
-10.79
-10.68
-10.89
-11.33
-11.86
-12.30
-12.60
-12.80
-13.03
-13.40
-13.89
-14.31
-14.33
-13.61
-11.95
-9.41
-6.33
-3.24
-0.66
1.11
2.16
2.90
3.87
5.54
7.94
10.72
13.20
14.76
15.05
14.33
13.31
12.95
14.11
17.23
22.27
28.68
35.65
42.29
47.84
51.90
54.54
56.44
58.79
63.05
70.41
81.18
94.38
107.83
119.02
126.28
129.93
132.53
137.90
149.23
167.12
188.60
207.98
219.06
217.88
204.31
181.80
155.42
129.38
105.42
82.83
59.67
34.24
5.90
-25.19
-58.87
-95.63
-136.54
-182.46
-233.20
-287.12
-341.59
-394.12
-443.39
-489.35
-532.29
-571.11
-602.03
-618.74
-614.15
-583.28
-525.79
-446.76
-355.39
-262.02
-175.17
-99.86
-37.59
12.38
51.73
82.40
106.83
128.25
150.23
175.42
203.95
232.76
256.38
269.06
267.35
251.81
226.78
198.52
172.77
152.79
138.90
129.40
122.08
115.34
108.63
102.04
95.68
89.40
82.83
75.65
67.80
59.56
51.36
43.61
36.53
30.18
24.49
19.34
14.55
9.94
5.30
0.50
-4.40
-9.15
-13.34
-16.63
-18.97
-20.59
-21.91
-23.19
-24.44
-25.34
-25.67
-25.55
-25.56
-26.59
-29.23
-33.41
-38.20
-42.17
-43.97
-43.05
-39.79
-35.32
-30.93
-27.42
-24.79
-22.36
-19.24
-14.87
-9.45
-3.92
0.41
2.47
1.91
-0.72
-4.20
-7.01
-7.76
-5.38
0.79
10.87
24.29
39.63
54.54
66.11
71.75
70.04
61.53
48.62
34.97
24.22
18.76
19.05
23.53
29.36
33.36
33.06
27.33
16.54
2.36
-12.76
-26.20
-35.77
-40.23
-39.44
-34.28
-26.20
-16.63
-6.48
4.00
15.13
27.21
40.03
52.67
63.71
71.82
76.37
77.83
77.58
77.25
77.89
79.36
80.45
79.57
75.76
69.33
61.75
54.89
49.97
47.05
45.14
43.04
40.15
36.80
34.01
32.74
33.18
34.59
35.57
34.72
31.15
24.69
15.76
5.08
-6.54
-18.41
-29.92
-40.67
-50.36
-58.85
-66.05
-71.81
-75.95
-78.21
-78.40
-76.55
-73.02
-68.44
-63.60
-59.13
-55.38
-52.28
-49.56
-46.96
-44.37
-41.95
-40.01
-38.74
-38.07
-37.61
-36.86
-35.42
-33.24
-30.64
-28.12
-26.09
-24.68
-23.65
-22.58
-21.10
-19.09
-16.76
-14.49
-12.63
-11.30
-10.31
-9.33
-8.14
-6.76
-5.47
-4.64
-4.41
-4.58
-4.61
-3.94
-2.27
0.19
2.88
5.08
6.31
6.45
5.82
4.93
4.26
4.13
4.62
5.64
7.03
8.59
10.21
11.78
13.18
14.29
14.96
15.13
14.86
14.42
14.11
14.28
15.03
16.26
17.60
18.67
19.18
19.17
18.95
18.95
19.53
20.85
22.79
25.10
27.42
29.30
30.28
29.94
28.07
25.00
21.54
18.87
17.97
19.23
22.21
25.89
29.20
31.41
32.34
32.06
30.68
28.15
24.44
19.79
14.82
10.39
7.18
5.43
4.89
5.07
5.60
6.40
7.62
9.39
11.58
13.80
15.56
16.44
16.29
15.18
13.28
10.79
7.82
4.50
0.93
-2.73
-6.32
-9.65
-12.59
-15.03
-16.97
-18.48
-19.72
-20.88
-22.06
-23.29
-24.52
-25.70
-26.81
-27.88
-28.89
-29.73
-30.14
-29.74
-28.25
-25.57
-21.95
-17.91
-14.08
-10.94
-8.67
-7.13
-6.01
-4.98
-3.92
-2.90
-2.09
-1.54
-1.14
-0.65
0.14
1.29
2.62
3.81
4.54
4.65
4.16
3.30
2.35
1.55
0.93
0.30
-0.70
-2.46
-5.26
-9.15
-13.96
-19.38
-25.06
-30.63
-35.67
-39.75
-42.42
-43.40
-42.75
-40.91
-38.56
-36.41
-34.89
-34.00
-33.45
-32.91
-32.29
-31.82
-31.93
-32.98
-34.99
-37.62
-40.30
-42.44
-43.66
-43.80
-42.86
-40.94
-38.14
-34.63
-30.66
-26.51
-22.40
-18.43
-14.59
-10.84
-7.26
-4.06
-1.56
0.02
0.65
0.53
0.02
-0.53
-0.82
-0.71
-0.16
0.71
1.67
2.37
2.45
1.63
-0.11
-2.48
-4.98
-7.05
-8.30
-8.61
-8.08
-6.92
-5.32
-3.43
-1.41
0.48
1.92
2.66
2.61
2.01
1.30
0.97
1.36
2.52
4.22
6.11
7.87
9.29
10.30
10.92
11.23
11.32
11.27
11.17
11.07
11.00
10.98
11.08
11.36
11.91
12.75
13.80
14.90
15.85
16.48
16.68
16.42
15.69
14.45
12.67
10.34
7.49
4.25
0.78
-2.69
-5.98
-8.97
-11.56
-13.65
-15.14
-15.90
-15.87
-15.10
-13.77
-12.12
-10.39
-8.68
-6.97
-5.12
-2.97
-0.49
2.19
4.80
7.03
8.62
9.52
9.80
9.66
9.32
8.99
8.81
8.84
9.11
9.59
10.27
11.04
11.75
12.25
12.40
12.12
11.43
10.40
9.18
7.89
6.68
5.64
4.80
4.14
3.50
2.72
1.72
0.51
-0.74
-1.86
-2.76
-3.53
-4.39
-5.58
-7.19
-9.12
-11.08
-12.77
-13.97
-14.67
-14.98
-15.01
-14.78
-14.22
-13.24
-11.85
-10.16
-8.37
-6.67
-5.17
-3.90
-2.83
-1.97
-1.33
-0.98
-0.88
-0.94
-1.00
-0.92
-0.70
-0.40
-0.17
-0.04
0.06
0.30
0.84
1.75
2.93
4.22
5.46
6.50
7.32
7.87
8.10
7.95
7.40
6.53
5.53
4.63
3.98
3.56
3.24
2.83
2.19
1.28
0.19
-0.96
-2.06
-2.99
-3.66
-3.95
-3.74
-2.98
-1.74
-0.28
1.08
2.08
2.59
2.71
2.64
2.62
2.77
3.04
3.28
3.29
2.92
2.16
1.12
-0.00
-1.00
-1.74
-2.20
-2.51
-2.85
-3.39
-4.16
-5.08
-5.97
-6.66
-7.09
-7.32
-7.52
-7.79
-8.17
-8.56
-8.84
-8.94
-8.94
-9.07
-9.51
-10.41
-11.70
-13.20
-14.69
-16.03
-17.19
-18.23
-19.16
-19.89
-20.24
-20.01
-19.08
-17.46
-15.29
-12.75
-9.99
-7.08
-4.00
-0.68
2.88
6.61
10.35
13.86
16.91
19.38
21.23
22.51
23.26
23.47
23.10
22.13
20.65
18.93
17.30
16.06
15.36
15.10
14.98
14.68
13.86
12.33
10.02
7.02
3.58
0.10
-2.96
-5.24
-6.62
-7.28
-7.60
-8.03
-8.86
-10.17
-11.86
-13.69
-15.43
-16.82
-17.58
-17.41
-16.08
-13.53
-9.98
-5.90
-1.88
1.55
4.08
5.70
6.65
7.33
8.09
9.16
10.56
12.17
13.78
15.20
16.29
16.94
17.07
16.60
15.49
13.85
11.90
10.02
8.57
7.81
7.82
8.45
9.45
10.58
11.66
12.58
13.23
13.49
13.17
12.11
10.27
7.77
4.89
1.96
-0.78
-3.21
-5.32
-7.15
-8.68
-9.81
-10.43
-10.46
-9.91
-8.91
-7.64
-6.28
-4.98
-3.81
-2.80
-1.92
-1.08
-0.17
0.91
2.24
3.81
5.55
7.30
8.88
10.12
10.90
11.21
11.13
10.81
10.37
9.93
9.52
9.14
8.72
8.17
7.45
6.59
5.70
4.90
4.30
3.94
3.78
3.70
3.57
3.26
2.69
1.87
0.89
-0.11
-0.93
-1.47
-1.70
-1.74
-1.82
-2.13
-2.82
-3.87
-5.12
-6.41
-7.54
-8.38
-8.85
-8.91
-8.56
-7.87
-7.02
-6.19
-5.53
-5.07
-4.66
-4.06
-3.04
-1.50
0.45
2.56
4.52
6.13
7.29
8.04
8.43
8.52
8.32
7.86
7.24
6.64
6.23
6.12
6.29
6.62
6.93
7.05
6.93
6.62
6.22
5.86
5.65
5.65
5.82
6.05
6.16
5.98
5.46
4.64
3.63
2.57
1.52
0.51
-0.47
-1.41
-2.24
-2.93
-3.52
-4.13
-4.96
-6.12
-7.63
-9.35
-11.07
-12.53
-13.57
-14.11
-14.16
-13.79
-13.10
-12.14
-10.95
-9.56
-7.99
-6.36
-4.84
-3.60
-2.75
-2.30
-2.08
-1.91
-1.61
-1.14
-0.51
0.16
0.81
1.43
2.04
2.62
3.15
3.52
3.65
3.50
3.14
2.71
2.41
2.40
2.70
3.23
3.76
4.06
3.93
3.33
2.42
1.43
0.62
0.14
-0.06
-0.14
-0.35
-0.89
-1.79
-2.94
-4.20
-5.38
-6.40
-7.21
-7.82
-8.18
-8.19
-7.74
-6.77
-5.43
-3.94
-2.59
-1.52
-0.75
-0.09
0.66
1.62
2.75
3.87
4.82
5.52
6.04
6.47
6.89
7.25
7.44
7.40
7.17
6.95
6.91
7.13
7.50
7.80
7.84
7.60
7.31
7.32
7.88
8.88
9.88
10.20
9.30
7.11
4.12
1.25
-0.57
-0.81
0.30
1.83
2.53
1.34
-2.05
-7.11
-12.63
-17.25
-19.97
-20.56
-19.62
-18.47
-18.78
-22.19
-29.92
-42.43
-59.03
-77.80
-95.98
-110.82
-120.59
-125.18
-125.91
-124.78
-123.29
-121.56
-118.22
-111.34
-99.67
-83.41
-64.28
-44.56
-26.05
-9.26
6.55
23.01
41.54
62.37
84.12
104.07
119.12
126.71
126.03
117.69
104.78
92.11
84.45
84.36
91.40
103.06
116.53
130.16
143.31
156.42
169.82
183.10
195.06
204.49
210.80
214.29
216.44
217.71
218.17
217.29
214.01
207.11
195.78
180.06
160.98
140.30
119.41
99.77
82.32
67.23
53.73
40.38
25.33
6.49
-13.99
-35.12
-55.85
-75.28
-92.92
-108.78
-123.37
-137.27
-151.10
-165.39
-181.20
-199.15
-218.96
-239.01
-256.13
-266.24
-265.55
-252.18
-227.04
-194.19
-158.88
-125.73
-97.30
-73.83
-54.03
-36.39
-20.19
-5.59
6.52
15.63
21.77
25.23
25.88
22.86
14.78
0.55
-19.66
-44.08
-69.49
-92.20
-109.10
-118.56
-120.50
-115.96
-106.47
-93.44
-77.99
-60.98
-43.23
-25.66
-9.37
4.46
14.78
20.81
22.22
19.06
11.65
0.49
-13.71
-29.90
-46.39
-61.03
-71.65
-76.69
-75.77
-69.79
-60.47
-49.66
-38.81
-28.73
-19.78
-12.10
-5.72
-0.47
4.08
8.54
13.49
19.20
25.64
32.57
39.72
46.80
53.33
58.62
61.83
62.36
60.18
56.01
51.11
46.66
43.34
41.04
39.09
36.46
32.12
25.02
14.13
-1.36
-21.76
-46.48
-73.83
-101.18
-125.41
-143.56
-153.44
-154.08
-145.93
-130.78
-111.33
-90.48
-70.57
-52.75
-36.82
-21.59
-5.69
11.56
29.53
46.39
59.75
67.73
69.78
67.19
62.86
60.52
63.77
75.10
95.32
123.32
156.31
190.48
221.66
246.08
260.90
264.59
256.82
238.48
211.32
177.80
140.89
103.81
69.57
40.46
17.56
0.59
-11.75
-21.13
-28.82
-35.23
-39.93
-42.12
-41.27
-37.58
-32.08
-26.38
-22.05
-20.21
-21.27
-25.06
-31.15
-39.24
-49.39
-61.94
-77.18
-95.00
-114.72
-135.21
-155.38
-174.58
-192.70
-209.90
-226.00
-239.98
-250.07
-254.28
-251.42
-241.75
-227.07
-209.97
-192.77
-176.63
-161.35
-145.75
-128.64
-109.78
-90.44
-73.40
-62.09
-59.31
-66.04
-80.88
-100.32
-119.82
-135.11
-143.26
-142.75
-133.15
-114.45
-86.68
-49.89
-4.49
48.16
105.88
165.50
223.09
274.46
315.69
343.92
358.10
359.50
351.40
338.00
322.94
308.09
293.05
275.81
253.99
226.27
193.21
157.36
122.67
93.26
72.45
61.81
60.94
67.63
78.40
89.43
97.38
100.14
97.13
89.29
78.64
67.32
57.03
48.55
41.76
36.04
30.93
26.46
23.06
21.20
20.92
21.52
21.82
20.69
17.52
12.63
6.99
1.78
-2.09
-4.30
-4.93
-4.28
-2.58
-0.06
2.85
5.28
5.91
3.37
-3.26
-13.89
-27.27
-41.40
-54.39
-65.30
-74.65
-84.10
-95.70
-110.87
-129.66
-150.71
-171.64
-189.95
-203.77
-212.37
-216.00
-215.50
-211.72
-205.10
-195.55
-182.46
-164.78
-141.46
-111.96
-76.73
-37.44
3.04
41.16
73.57
98.03
114.23
123.35
127.47
128.68
128.64
128.51
129.15
131.16
134.99
141.08
149.13
157.97
165.82
171.13
173.19
172.19
168.70
163.39
157.29
151.17
145.09
138.21
128.73
114.62
94.37
67.95
35.08
0.20
-28.92
-44.58
-43.19
-26.95
-1.49
27.43
56.21
83.24
108.57
131.84
151.81
167.83
178.39
183.02
182.62
178.98
173.38
166.99
159.97
151.67
141.14
127.49
110.63
90.67
70.43
51.58
35.15
21.14
8.62
-3.53
-16.14
-29.11
-41.55
-52.58
-61.97
-69.77
-76.32
-82.23
-87.95
-93.53
-98.36
-101.45
-102.14
-100.60
-97.46
-93.66
-90.58
-89.16
-89.65
-91.38
-92.98
-93.69
-93.60
-93.48
-94.75
-100.17
-111.88
-130.21
-153.03
-175.48
-193.54
-204.62
-208.05
-205.62
-203.10
-206.14
-217.89
-237.54
-259.12
-277.73
-289.24
-290.58
-281.10
-266.25
-252.78
-246.22
-248.94
-257.60
-271.33
-288.81
-306.80
-321.27
-332.64
-341.81
-349.48
-355.57
-356.19
-353.51
-350.30
-346.96
-311.51
-224.55
-86.99
77.29
213.14
312.72
381.94
429.00
465.34
494.07
510.17
508.41
487.03
449.83
408.21
368.49
333.91
305.67
282.13
256.96
224.32
181.18
128.66
73.31
18.02
-35.15
-82.87
-120.74
-145.67
-155.69
-151.58
-137.52
-119.08
-105.62
-104.82
-119.44
-147.57
-185.48
-229.23
-275.78
-322.41
-364.93
-399.55
-422.50
-431.00
-424.67
-405.91
-378.58
-346.44
-311.89
-275.67
-238.38
-200.92
-164.55
-130.69
-100.36
-73.89
-51.04
-31.22
-13.75
2.10
17.02
31.79
47.09
63.38
80.67
98.34
115.02
128.91
138.31
142.20
140.44
133.68
122.89
109.09
93.28
76.78
61.42
49.28
42.13
40.70
44.41
51.65
60.56
69.84
79.02
88.38
98.37
109.26
121.11
133.95
147.96
163.62
181.45
201.66
223.73
246.05
266.03
280.46
286.43
282.31
268.42
247.13
222.13
197.45
176.41
161.16
152.64
150.75
154.51
162.08
170.70
176.85
177.03
168.62
150.75
124.63
93.17
60.02
28.53
0.98
-21.46
-38.48
-50.15
-56.47
-57.39
-52.92
-43.44
-29.98
-14.14
2.08
16.80
28.59
36.85
41.72
43.92
44.28
43.45
41.67
38.93
35.05
29.95
23.80
17.01
10.14
3.70
-1.96
-6.77
-10.97
-14.90
-18.93
-23.20
-27.59
-31.82
-35.65
-39.10
-42.56
-46.66
-52.03
-58.87
-66.68
-74.06
-78.85
-78.56
-71.19
-55.98
-34.07
-8.50
16.50
36.61
48.63
51.21
44.98
32.09
15.54
-1.54
-16.47
-27.36
-33.42
-34.85
-32.77
-28.78
-24.72
-22.41
-23.51
-29.25
-39.97
-54.65
-70.68
-84.30
-91.67
-90.23
-79.79
-62.87
-44.17
-29.23
-22.73
-26.98
-41.09
-61.18
-81.61
-96.81
-103.04
-99.14
-86.21
-66.22
-40.62
-9.76
26.56
67.80
111.57
153.66
188.76
211.82
219.53
211.01
188.01
154.36
115.34
76.82
44.51
22.70
13.23
15.07
24.75
37.68
49.70
58.24
62.60
64.00
64.05
63.91
64.14
65.20
68.08
74.23
84.91
100.12
119.49
140.72
160.19
174.09
179.98
177.75
169.17
156.77
142.47
130.04
121.71
117.76
116.81
117.14
117.89
119.06
120.75
122.28
126.72
135.80
149.14
164.28
178.48
190.46
200.75
210.85
222.20
241.80
274.72
321.92
379.40
440.20
497.56
546.69
585.08
575.07
496.06
350.14
163.57
-28.45
-199.19
-336.69
-440.23
-514.62
-566.36
-595.61
-602.94
-591.50
-567.78
-539.59
-513.15
-491.74
-476.20
-466.10
-455.68
-440.45
-419.08
-393.87
-368.95
-347.73
-331.69
-320.62
-313.55
-306.32
-295.76
-280.85
-262.84
-243.99
-225.89
-208.70
-191.40
-173.84
-154.28
-131.74
-106.38
-79.46
-52.42
-26.03
-0.09
26.14
53.35
82.46
113.56
146.00
178.55
210.03
239.71
267.34
293.15
317.86
343.02
370.35
400.38
431.36
458.86
476.68
479.19
463.33
429.64
381.62
323.93
260.52
194.76
130.41
72.17
24.88
-8.75
-29.88
-43.39
-55.69
-72.17
-94.52
-120.45
-145.70
-166.56
-181.65
-191.97
-199.31
-205.11
-211.22
-219.91
-233.77
-254.62
-281.92
-312.01
-338.46
-354.04
-349.44
-321.45
-275.64
-224.69
-182.07
-155.25
-143.91
-142.67
-145.31
-147.95
-150.23
-153.21
-157.15
-161.39
-163.26
-160.63
-153.16
-142.10
-129.77
-118.99
-111.67
-107.73
-105.50
-102.40
-96.21
-85.67
-71.68
-55.60
-39.29
-24.29
-10.43
3.30
18.47
36.37
57.65
82.19
109.26
137.44
165.19
192.68
220.33
248.68
277.97
308.08
339.03
371.49
406.63
445.31
488.44
533.24
572.82
597.79
599.71
574.77
525.74
460.89
380.43
289.67
195.07
102.98
18.76
-53.78
-112.53
-157.28
-189.72
-212.79
-227.61
-234.92
-235.27
-229.28
-219.31
-208.68
-201.18
-200.41
-208.78
-224.40
-242.33
-255.50
-256.65
-241.04
-207.86
-160.81
-106.12
-54.15
-14.10
8.72
14.73
8.51
-4.69
-21.26
-39.74
-59.51
-79.47
-96.62
-107.68
-110.40
-104.81
-93.71
-80.67
-68.56
-58.47
-49.71
-39.75
-25.60
-4.58
24.82
61.77
103.00
142.94
174.75
192.12
191.52
171.36
133.14
83.92
33.47
-9.07
-38.52
-54.61
-60.52
-60.02
-55.58
-47.69
-36.02
-21.35
-5.75
7.85
17.00
20.55
19.49
16.34
14.51
17.04
24.99
37.22
50.83
62.48
69.38
71.08
68.27
62.13
53.01
40.04
22.56
1.40
-20.51
-39.71
-53.72
-63.25
-71.90
-84.36
-103.87
-130.02
-159.20
-186.84
-210.55
-230.47
-248.07
-263.50
-274.10
-275.57
-264.71
-242.40
-210.22
-174.92
-143.73
-121.14
-106.88
-96.21
-82.66
-60.91
-29.19
8.87
46.61
77.00
95.58
102.88
104.41
107.94
119.83
141.01
167.69
188.53
192.68
174.38
136.13
87.24
38.06
-1.04
-30.89
-55.72
-78.95
-100.47
-117.52
-127.86
-130.00
-125.00
-115.93
-106.89
-99.93
-94.88
-89.11
-79.01
-61.46
-34.90
0.05
41.28
85.83
131.55
176.52
218.79
256.08
286.14
307.48
319.63
323.15
318.84
307.85
291.16
269.94
245.95
221.69
199.95
182.58
169.90
160.57
152.75
145.02
136.94
128.87
121.31
114.24
106.93
98.25
87.44
74.54
60.52
46.65
33.99
22.92
13.22
4.35
-4.08
-12.08
-19.44
-26.04
-32.24
-38.87
-46.99
-57.30
-69.73
-83.29
-96.34
-107.07
-114.17
-117.22
-116.81
-114.24
-110.92
-107.97
-105.85
-104.52
-103.70
-103.25
-103.25
-103.94
-105.56
-108.20
-111.75
-116.01
-120.75
-125.82
-131.11
-136.49
-141.69
-146.23
-149.39
-150.29
-148.11
-142.38
-133.11
-120.78
-105.98
-89.19
-70.55
-50.13
-28.17
-5.31
17.35
38.36
56.22
69.47
76.96
78.08
73.05
63.16
50.66
38.21
27.95
20.66
15.44
10.14
2.37
-9.37
-25.09
-43.45
-62.34
-79.70
-93.88
-103.76
-108.58
-107.85
-101.47
-89.86
-73.92
-54.62
-32.63
-7.97
19.75
50.86
84.96
120.65
155.73
187.69
214.41
234.59
247.84
254.70
256.42
254.71
251.46
248.24
245.78
243.56
239.76
231.69
216.85
194.05
164.13
129.95
95.41
64.13
38.18
17.73
1.53
-11.98
-23.75
-33.79
-41.60
-46.93
-50.16
-52.26
-54.16
-56.28
-58.34
-59.65
-59.71
-58.58
-56.87
-55.39
-54.67
-54.71
-55.14
-55.61
-56.15
-57.13
-58.98
-61.72
-64.65
-66.42
-65.53
-61.03
-53.04
-42.83
-32.51
-24.57
-21.31
-24.50
-35.14
-53.23
-77.85
-107.23
-139.15
-171.65
-203.70
-235.48
-267.81
-300.75
-332.23
-357.44
-369.86
-363.50
-335.50
-287.51
-225.20
-155.91
-85.89
-18.50
45.58
106.40
162.70
211.06
246.94
267.02
271.01
261.86
244.22
222.05
197.28
170.02
140.29
109.80
82.52
63.47
56.57
62.92
80.30
104.11
128.97
150.09
163.93
168.51
163.65
151.25
135.46
121.69
114.77
116.77
125.68
136.12
141.89
138.81
126.76
109.58
93.07
82.31
79.66
84.09
92.10
99.33
101.84
96.93
83.22
60.65
30.21
-5.78
-43.56
-78.96
-108.52
-130.22
-144.15
-152.48
-158.74
-166.76
-179.05
-195.17
-211.80
-223.54
-224.27
-209.32
-177.42
-131.66
-79.36
-29.55
10.64
37.11
49.33
50.17
44.33
36.40
29.60
24.31
19.73
17.02
16.63
17.56
18.79
19.53
19.25
17.54
11.32
-2.16
-19.75
-37.77
-53.87
-64.69
-67.31
-61.03
-48.51
-39.51
-44.39
-63.23
-93.43
-132.55
-175.17
-215.48
-249.83
-278.09
-308.34
-348.99
-395.82
-443.41
-489.74
-531.74
-567.10
-595.37
-584.51
-513.36
-431.42
-366.17
-309.31
-259.42
-215.86
-178.22
-145.54
-115.75
-91.38
-74.86
-59.19
-40.98
-23.72
-9.69
1.76
14.31
32.83
56.54
81.42
108.21
134.57
154.41
164.88
166.94
164.12
160.71
157.85
155.94
159.80
172.16
190.43
208.58
217.39
207.23
172.13
112.38
36.92
-37.08
-92.90
-121.13
-121.25
-100.49
-69.59
-38.07
-11.90
7.12
20.39
29.34
34.12
34.49
30.82
24.55
18.21
14.22
14.06
17.88
24.63
32.68
40.58
47.53
53.62
59.61
66.50
75.20
86.20
99.58
115.34
133.86
155.94
182.27
212.21
242.82
269.15
285.90
289.97
282.18
267.05
250.57
237.09
227.27
218.06
204.74
183.73
154.47
119.79
84.74
55.14
36.19
31.54
42.44
67.08
100.76
137.21
170.64
197.61
217.55
231.60
240.65
243.89
238.76
222.34
193.21
152.41
103.16
49.47
-5.19
-58.35
-108.07
-152.31
-188.75
-215.53
-232.23
-240.45
-243.38
-244.27
-244.68
-243.44
-237.09
-221.57
-194.29
-155.52
-108.34
-57.28
-6.51
41.66
87.00
130.55
173.35
215.50
256.01
293.30
325.81
352.23
371.30
381.36
380.35
366.32
338.61
298.94
251.62
202.61
157.54
119.70
88.94
62.15
34.78
3.35
-32.71
-70.52
-104.99
-131.11
-146.07
-150.00
-145.76
-137.88
-130.80
-127.47
-128.75
-133.61
-139.99
-145.50
-148.12
-147.06
-143.67
-141.08
-143.09
-152.23
-168.46
-188.94
-208.84
-223.01
-225.45
-213.18
-187.93
-155.63
-122.91
-93.68
-68.42
-47.35
-30.75
-20.82
-20.31
-29.23
-42.92
-53.12
-50.57
-30.90
2.57
39.89
68.42
77.80
64.02
30.54
-13.71
-57.98
-93.28
-113.80
-116.62
-101.30
-70.11
-27.97
18.28
61.77
97.68
124.31
142.79
155.53
164.01
166.79
159.83
138.67
101.13
48.85
-13.21
-78.45
-140.59
-191.86
-224.63
-234.07
-220.19
-187.66
-143.43
-94.54
-47.01
-5.51
27.06
49.56
62.76
69.20
72.30
75.13
79.22
84.35
89.06
91.88
91.88
89.09
84.96
80.33
75.39
69.39
60.81
47.79
28.74
2.56
-30.94
-70.15
-109.48
-141.59
-159.19
-157.74
-137.82
-105.30
-69.30
-38.72
-18.77
-10.02
-9.63
-13.75
-19.65
-26.56
-34.56
-43.09
-50.49
-54.28
-52.96
-46.95
-38.79
-30.73
-24.40
-19.60
-14.49
-6.56
6.33
24.09
44.34
63.56
78.38
86.92
89.40
87.78
84.94
84.26
88.02
96.98
109.94
123.57
132.66
131.61
116.62
84.96
42.17
-1.65
-36.22
-55.25
-58.39
-50.23
-37.06
-23.73
-12.16
-1.65
8.64
18.30
25.87
29.92
30.19
27.95
25.41
24.90
27.98
34.57
43.19
51.82
58.86
63.69
66.63
68.59
70.54
72.53
73.74
72.75
68.23
59.57
47.14
32.36
17.27
3.64
-6.95
-13.61
-16.08
-14.56
-9.44
-1.21
9.75
22.94
37.27
51.67
65.17
76.95
86.49
93.72
98.86
102.49
105.34
107.46
108.99
110.14
111.08
111.85
112.28
111.72
108.70
105.52
102.15
98.16
93.12
86.86
79.60
71.88
64.27
57.11
50.40
43.11
34.41
23.88
11.77
-1.06
-13.51
-24.82
-35.02
-45.02
-56.86
-72.29
-92.11
-115.74
-141.38
-166.94
-190.81
-212.60
-233.10
-254.04
-276.90
-302.57
-331.60
-364.32
-400.69
-439.30
-476.63
-506.89
-523.64
-521.93
-500.37
-461.66
-411.17
-354.52
-295.84
-237.64
-182.29
-133.92
-98.83
-83.82
-92.91
-124.28
-169.41
-215.32
-248.91
-261.61
-251.95
-225.32
-190.74
-156.80
-128.45
-106.26
-87.77
-70.05
-51.60
-32.91
-15.37
0.37
15.17
31.53
52.40
79.82
113.98
153.02
193.76
233.04
268.77
300.63
329.98
359.03
389.94
424.30
463.07
506.63
554.44
604.12
650.81
687.36
706.08
701.54
672.90
624.58
564.74
502.15
443.23
390.68
344.24
302.48
264.65
230.94
201.78
176.54
152.95
127.80
98.10
62.23
20.18
-26.55
-75.49
-123.50
-166.99
-202.47
-227.43
-241.58
-247.43
-249.95
-255.03
-267.69
-290.60
-323.65
-364.43
-408.89
-452.11
-488.92
-514.85
-527.52
-527.60
-518.76
-505.95
-493.13
-481.16
-467.67
-448.71
-420.92
-383.14
-336.30
-282.69
-225.44
-169.32
-121.56
-91.38
-86.93
-111.05
-157.98
-213.72
-260.79
-284.90
-280.37
-251.10
-207.30
-159.79
-115.49
-76.26
-40.77
-7.60
22.91
48.91
68.91
83.40
95.41
109.26
128.46
154.12
184.61
216.52
246.26
271.64
292.61
311.31
330.87
354.39
384.43
422.58
468.75
520.12
570.97
613.40
640.28
647.03
633.12
602.05
559.50
511.10
460.73
410.75
362.87
320.09
284.76
257.03
234.03
210.83
182.50
146.33
103.04
56.00
10.92
-27.93
-59.20
-83.95
-104.12
-121.24
-136.17
-149.25
-169.14
-198.63
-234.47
-269.44
-296.73
-313.14
-319.12
-316.98
-309.81
-300.83
-291.26
-281.66
-272.64
-264.90
-258.88
-254.20
-251.38
-251.41
-255.61
-264.51
-278.90
-299.56
-326.06
-355.19
-380.97
-395.64
-393.02
-371.16
-332.34
-282.04
-227.41
-176.30
-133.74
-100.99
-74.59
-50.86
-28.23
-7.21
10.95
25.63
37.54
48.20
58.82
73.56
94.17
118.78
143.30
164.09
179.81
191.31
200.69
209.96
226.74
255.50
295.24
340.62
385.96
428.27
467.20
503.79
538.87
580.68
633.57
694.90
756.35
809.28
848.67
873.48
885.21
834.10
698.99
495.65
268.09
58.28
-112.79
-242.86
-338.64
-408.64
-460.46
-491.84
-501.85
-494.76
-479.44
-464.45
-454.39
-450.38
-449.84
-449.23
-439.09
-413.31
-371.91
-320.37
-265.27
-211.77
-163.63
-122.42
-88.59
-58.07
-28.09
1.05
26.31
44.92
55.68
59.29
57.70
52.71
47.84
45.91
48.58
55.83
66.33
76.74
82.08
77.31
59.50
30.47
-4.25
-36.89
-63.87
-83.15
-94.62
-98.65
-94.94
-83.34
-65.09
-44.25
-26.84
-19.08
-23.56
-38.80
-59.69
-79.84
-94.95
-103.32
-105.88
-104.24
-99.97
-93.52
-85.26
-75.65
-65.28
-54.98
-45.61
-37.34
-29.98
-23.33
-17.08
-11.26
-6.11
-1.94
0.81
2.03
2.11
1.37
0.24
-0.98
-2.00
-2.72
-2.77
-2.05
-0.33
3.03
8.07
14.83
23.37
34.08
47.57
65.04
88.06
113.78
141.43
170.99
203.11
238.62
277.39
317.18
353.37
380.15
392.68
389.60
372.84
346.82
316.76
287.13
260.63
238.24
220.02
205.55
194.32
184.38
172.12
153.04
123.96
85.09
40.77
-1.10
-31.86
-45.91
-44.11
-34.02
-26.76
-31.97
-53.84
-90.94
-136.89
-183.57
-224.29
-256.18
-280.02
-298.27
-313.11
-325.68
-338.96
-355.45
-375.45
-395.98
-411.76
-417.00
-407.19
-380.43
-338.24
-289.33
-243.44
-206.82
-179.66
-157.62
-135.46
-110.00
-81.70
-55.05
-42.35
-55.22
-98.57
-168.00
-252.90
-341.80
-426.00
-500.44
-530.94
-495.32
-395.09
-256.72
-112.27
17.47
124.64
208.59
271.75
317.86
346.18
357.06
354.26
345.03
336.20
331.36
329.73
328.43
324.56
312.48
288.53
253.06
210.66
167.48
128.33
95.11
67.85
46.04
27.00
8.77
-8.73
-23.25
-33.07
-38.44
-41.13
-43.41
-46.79
-52.65
-60.85
-72.47
-83.21
-90.09
-92.35
-90.69
-86.30
-79.81
-71.50
-60.81
-47.06
-29.37
-8.61
12.48
30.50
42.27
45.47
38.66
21.39
-5.36
-38.33
-68.24
-86.09
-85.28
-64.90
-30.53
7.88
40.07
59.62
66.11
63.33
56.12
48.18
40.83
33.77
26.32
18.44
10.97
4.97
0.81
-2.43
-5.89
-10.56
-16.50
-22.98
-28.70
-32.79
-33.73
-30.53
-22.93
-11.05
4.58
23.11
43.63
65.26
87.16
108.12
126.06
138.01
140.98
133.38
116.34
93.80
71.05
52.53
39.87
31.63
24.90
17.89
11.34
8.08
10.84
19.75
31.40
39.59
38.22
24.41
0.50
-26.51
-47.57
-55.17
-46.09
-22.13
11.03
46.26
77.41
100.82
115.64
122.94
124.39
121.05
112.60
97.44
73.64
40.22
-1.63
-47.93
-92.28
-127.13
-145.28
-141.37
-113.07
-61.81
6.65
82.40
152.75
204.98
230.18
226.78
201.65
167.79
139.05
124.40
124.62
133.25
140.73
139.41
126.52
103.89
75.27
43.56
9.71
-26.26
-63.33
-98.48
-127.25
-145.84
-153.13
-151.39
-145.12
-139.24
-136.98
-138.96
-143.43
-147.18
-146.94
-140.47
-127.15
-107.80
-84.06
-57.62
-29.53
-0.16
30.54
62.56
95.23
127.13
156.23
180.30
197.54
207.11
209.33
205.43
197.10
185.87
172.74
158.26
142.59
125.66
107.26
86.85
63.63
36.68
5.29
-30.64
-70.36
-112.32
-154.38
-194.08
-229.10
-257.56
-278.43
-291.66
-298.28
-300.08
-299.42
-298.74
-299.92
-303.50
-307.95
-309.63
-303.89
-286.96
-257.95
-219.91
-178.89
-141.68
-113.03
-93.92
-81.78
-72.46
-62.40
-50.14
-36.16
-21.86
-8.02
5.86
21.26
39.53
60.41
81.62
99.10
108.69
107.70
96.10
76.51
53.10
29.93
9.26
-8.43
-23.69
-36.82
-47.21
-53.71
-55.44
-52.57
-46.46
-39.85
-34.93
-32.17
-29.81
-24.70
-13.95
3.68
27.18
53.46
76.54
90.55
91.81
80.55
60.82
38.76
20.38
10.15
10.09
17.01
25.76
30.88
28.28
14.88
-11.83
-52.80
-104.94
-159.75
-208.53
-243.36
-261.23
-265.43
-264.89
-270.87
-291.40
-327.02
-348.62
-329.67
-257.97
-145.65
-20.11
93.88
183.96
249.74
297.19
333.15
358.45
372.03
371.53
356.59
329.98
295.93
258.23
218.87
177.61
130.69
77.01
19.16
-35.02
-74.70
-90.96
-81.11
-50.10
-8.35
30.97
57.90
68.50
65.32
54.51
41.77
30.24
20.59
12.59
5.74
0.00
-4.71
-8.69
-12.60
-17.42
-24.12
-32.94
-43.05
-53.02
-61.23
-66.64
-68.98
-68.66
-67.03
-64.59
-61.60
-57.74
-52.31
-44.78
-35.25
-24.58
-14.26
-5.64
0.27
3.05
3.10
1.39
-1.04
-3.48
-5.73
-8.16
-11.02
-14.54
-18.75
-23.19
-27.17
-30.06
-31.61
-32.04
-32.09
-32.18
-32.64
-33.43
-33.70
-32.20
-27.52
-18.40
-3.65
14.02
33.15
52.64
71.90
91.26
111.29
132.73
156.50
183.49
213.95
247.17
280.44
309.26
329.21
336.77
331.08
314.70
292.65
270.46
252.35
239.72
231.20
224.33
215.24
199.95
175.39
140.31
95.60
44.48
-8.18
-61.25
-109.28
-146.28
-168.33
-175.30
-170.12
-157.25
-141.07
-124.58
-109.19
-94.27
-79.48
-64.69
-50.19
-36.16
-23.08
-11.88
-2.61
5.45
14.46
23.97
31.90
35.44
32.28
20.65
-0.77
-30.93
-67.14
-104.33
-138.14
-165.30
-186.74
-201.12
-208.10
-210.57
-211.92
-214.64
-218.57
-220.74
-215.80
-198.55
-166.44
-114.77
-52.76
5.03
46.34
66.58
68.86
60.68
49.22
39.07
31.08
23.11
14.11
4.97
-2.61
-7.44
-9.37
-9.24
-8.04
-7.20
-8.76
-13.53
-21.04
-30.17
-39.60
-47.95
-54.43
-56.81
-52.96
-41.49
-21.51
6.04
37.46
66.44
85.49
89.45
78.83
59.43
39.74
27.41
25.77
33.15
44.37
53.56
56.69
53.41
44.93
33.85
23.63
17.69
18.14
24.57
33.26
39.03
37.28
25.86
6.10
-18.23
-42.96
-65.20
-83.88
-98.90
-109.65
-115.24
-114.09
-105.50
-90.55
-71.90
-52.83
-36.28
-23.78
-14.77
-7.56
-0.12
8.93
19.68
30.92
40.53
46.39
47.11
43.13
36.22
29.15
24.64
24.43
28.57
35.43
42.36
46.78
47.82
46.43
45.35
48.21
58.32
77.59
105.97
141.26
177.22
207.90
228.31
235.78
230.52
215.42
194.71
172.29
150.03
127.50
103.28
75.93
45.53
14.39
-13.05
-31.14
-34.90
-22.81
1.72
30.50
52.26
56.46
37.51
-2.63
-54.72
-105.84
-145.58
-170.18
-183.38
-193.86
-210.20
-236.71
-271.95
-310.26
-340.09
-351.65
-339.96
-306.75
-259.06
-204.72
-148.73
-93.01
-38.49
12.85
56.80
88.86
106.37
110.27
105.04
96.93
91.30
91.07
96.06
103.18
108.49
109.05
104.33
96.33
88.49
83.85
84.05
88.80
95.90
102.57
106.60
107.27
105.37
102.85
100.57
98.42
94.99
87.91
74.94
54.85
28.19
-2.81
-34.36
-63.31
-87.64
-106.79
-121.43
-132.81
-142.29
-151.14
-160.18
-169.48
-177.79
-181.94
-177.71
-161.60
-133.00
-95.30
-55.20
-20.16
4.41
16.90
19.56
16.55
11.55
6.30
0.77
-5.72
-13.15
-20.62
-26.87
-31.15
-33.63
-35.32
-37.27
-39.95
-43.03
-44.77
-43.32
-37.39
-26.81
-12.52
3.66
19.70
33.93
45.44
54.13
60.26
64.20
66.08
65.78
63.02
57.63
49.80
40.15
29.64
19.26
9.82
1.76
-4.81
-10.15
-14.62
-18.58
-22.20
-25.50
-28.39
-30.82
-32.80
-34.31
-35.49
-36.57
-37.80
-39.44
-41.63
-44.52
-48.21
-52.87
-58.43
-64.98
-72.64
-81.42
-91.08
-101.06
-110.51
-118.48
-124.17
-126.87
-126.52
-123.54
-118.53
-111.91
-103.53
-92.60
-77.76
-60.14
-40.45
-19.98
-0.24
17.49
32.82
46.54
60.45
76.67
96.61
120.64
147.37
174.31
198.73
218.82
234.38
246.69
258.07
271.21
288.99
313.48
345.11
381.62
417.67
445.71
458.08
449.86
421.01
376.58
324.48
272.16
223.87
179.73
137.12
93.28
47.82
3.51
-34.72
-62.28
-77.14
-80.73
-77.24
-71.77
-68.47
-69.18
-73.72
-80.78
-89.16
-98.31
-108.23
-118.74
-128.96
-137.39
-142.46
-143.25
-139.90
-133.56
-125.92
-118.60
-112.51
-107.63
-103.23
-98.38
-92.62
-86.34
-80.65
-76.89
-75.98
-77.93
-81.78
-86.05
-89.31
-90.68
-89.93
-87.21
-82.71
-76.36
-67.97
-57.51
-45.52
-33.10
-21.68
-12.45
-5.92
-1.84
0.53
1.91
2.63
2.52
1.24
-1.34
-4.82
-8.35
-10.94
-11.91
-11.25
-9.59
-7.90
-6.98
-7.14
-8.13
-9.34
-10.22
-10.56
-10.54
-10.54
-10.85
-11.49
-12.18
-12.57
-12.43
-11.82
-10.89
-9.73
-8.25
-6.15
-3.16
0.72
5.09
9.23
12.45
14.42
15.44
16.35
18.16
21.46
26.06
30.77
33.75
33.02
27.26
16.28
1.38
-14.95
-29.63
-39.90
-44.12
-42.22
-35.56
-26.30
-16.68
-8.35
-2.10
1.87
3.64
3.29
0.89
-3.31
-8.68
-14.28
-19.15
-22.69
-24.85
-26.01
-26.66
-27.05
-27.03
-26.19
-24.18
-21.06
-17.36
-13.89
-11.40
-10.24
-10.26
-10.94
-11.73
-12.28
-12.53
-12.57
-12.48
-12.21
-11.63
-10.70
-9.55
-8.51
-7.97
-8.10
-8.74
-9.43
-9.62
-8.95
-7.44
-5.48
-3.62
-2.29
-1.58
-1.18
-0.65
0.37
1.87
3.40
4.31
4.06
2.52
0.08
-2.58
-4.78
-6.20
-7.00
-7.67
-8.75
-10.46
-12.56
-14.47
-15.64
-15.77
-15.05
-13.99
-13.11
-12.63
-12.28
-11.54
-9.91
-7.25
-3.88
-0.44
2.47
4.60
6.17
7.69
9.60
12.03
14.62
16.81
18.05
18.17
17.42
16.33
15.36
14.65
13.98
12.90
11.07
8.49
5.62
3.07
1.35
0.56
0.32
-0.01
-0.90
-2.45
-4.19
-5.40
-5.50
-4.39
-2.54
-0.74
0.32
0.38
-0.30
-1.13
-1.57
-1.43
-0.95
-0.51
-0.46
-0.78
-1.16
-1.13
-0.42
0.90
2.39
3.51
3.96
3.75
3.27
3.02
3.30
4.11
5.06
5.71
5.74
5.20
4.42
3.87
3.86
4.43
5.29
6.08
6.49
6.48
6.30
6.27
6.60
7.25
7.94
8.32
8.23
7.82
7.46
7.60
8.40
9.67
10.95
11.83
12.24
12.66
13.86
16.45
20.45
25.12
29.24
31.67
31.94
30.58
28.88
28.26
29.47
32.11
34.68
35.17
31.84
23.94
12.03
-2.10
-15.86
-26.41
-31.24
-28.53
-17.58
1.00
25.27
52.16
78.11
99.83
114.72
121.01
117.52
103.26
77.37
39.54
-9.40
-66.71
-127.72
-186.55
-237.47
-276.36
-301.66
-314.32
-316.77
-311.44
-299.47
-280.31
-252.44
-214.70
-167.51
-113.25
-55.37
2.81
59.13
112.61
162.77
208.67
248.25
278.27
294.68
293.60
272.42
230.94
172.32
103.19
32.43
-31.04
-80.94
-115.39
-136.63
-149.03
-156.36
-159.82
-157.94
-148.27
-129.33
-102.10
-70.25
-39.15
-14.46
-0.83
-0.98
-15.25
-41.30
-74.08
-106.54
-130.99
-141.13
-133.85
-109.96
-73.63
-30.64
13.98
57.52
100.05
142.90
186.43
227.96
261.35
278.49
272.05
238.42
179.73
103.88
23.04
-48.94
-99.58
-120.03
-106.76
-62.23
5.38
83.68
158.29
215.72
245.93
244.24
212.18
156.99
90.13
24.69
-27.67
-59.41
-68.58
-58.56
-36.23
-9.45
15.48
35.26
49.72
61.01
72.24
86.36
105.30
129.26
156.68
184.63
209.86
229.85
243.55
251.35
254.71
255.42
254.94
254.14
253.07
250.94
246.22
237.08
222.04
200.70
174.29
145.42
117.23
92.32
71.93
55.83
42.74
31.07
19.27
5.79
-11.24
-33.91
-63.96
-101.74
-145.26
-190.30
-231.57
-264.81
-288.64
-305.17
-319.07
-335.52
-357.83
-385.87
-416.06
-442.53
-458.96
-460.38
-444.59
-412.82
-369.69
-322.09
-277.01
-239.12
-209.21
-184.48
-160.47
-133.61
-103.07
-70.93
-40.99
-17.31
-3.49
-2.40
-15.53
-41.53
-74.61
-104.73
-120.62
-114.76
-87.63
-48.24
-9.69
17.55
31.10
37.50
48.18
72.95
115.27
171.20
231.97
287.99
331.62
358.15
365.48
353.80
325.83
286.78
243.49
202.48
168.38
143.01
126.14
117.03
115.38
121.52
135.13
153.83
172.67
185.49
186.73
173.68
147.29
111.25
70.38
28.96
-9.55
-41.97
-64.78
-74.88
-71.00
-55.49
-34.81
-18.03
-14.03
-28.62
-63.27
-115.55
-180.40
-251.04
-319.36
-376.45
-413.90
-426.43
-414.18
-383.28
-343.82
-305.94
-275.84
-254.17
-237.23
-219.52
-196.75
-167.10
-130.92
-89.70
-45.15
0.98
46.44
88.42
124.05
150.96
168.27
176.82
178.85
177.17
174.26
171.40
168.60
164.71
157.92
146.43
128.96
104.90
74.40
38.40
-0.89
-39.44
-71.06
-88.53
-85.98
-62.09
-22.16
22.14
55.93
66.08
46.09
-1.45
-65.55
-130.56
-181.15
-206.69
-203.25
-173.20
-123.21
-61.71
2.89
63.14
112.96
147.76
164.93
164.47
149.35
125.06
98.35
75.47
60.61
55.27
58.39
67.16
78.02
87.81
94.34
96.91
96.42
94.87
94.52
96.93
102.35
109.57
116.28
119.36
115.62
102.61
79.34
46.80
7.61
-34.86
-77.73
-119.50
-160.93
-204.22
-250.95
-299.64
-344.37
-375.55
-382.74
-358.59
-301.58
-217.86
-119.36
-19.79
69.73
143.64
201.95
248.24
286.94
321.26
350.76
371.39
377.13
362.57
325.40
267.69
195.65
114.53
33.66
-36.87
-89.44
-121.32
-134.29
-132.28
-119.40
-99.43
-76.30
-53.80
-35.87
-25.27
-22.46
-25.28
-29.85
-32.43
-31.03
-25.93
-18.85
-12.38
-8.71
-8.64
-11.18
-14.11
-15.32
-13.78
-9.94
-5.14
-1.09
1.00
1.03
0.24
0.71
4.09
10.87
20.20
30.28
38.96
44.80
46.96
45.57
41.23
34.27
24.44
11.08
-6.46
-28.47
-54.40
-83.45
-114.53
-145.36
-172.36
-190.68
-195.47
-184.35
-158.97
-125.09
-90.52
-62.62
-43.39
-31.10
-21.48
-10.13
5.13
23.66
42.98
60.18
73.33
81.72
85.27
84.15
78.68
69.23
56.23
40.73
23.81
6.75
-9.25
-23.37
-34.95
-43.13
-47.26
-46.86
-41.72
-32.09
-18.24
-0.27
21.71
46.37
72.57
98.83
123.44
144.95
162.63
176.37
185.74
188.80
182.16
162.59
128.94
83.83
33.79
-12.95
-49.47
-72.56
-83.27
-85.16
-81.72
-74.92
-64.98
-51.73
-36.14
-20.93
-9.83
-5.81
-9.54
-18.86
-29.86
-38.42
-42.17
-41.27
-38.06
-35.46
-35.06
-35.79
-34.32
-26.82
-11.25
10.99
35.56
56.54
68.65
69.21
59.10
41.83
21.88
3.18
-12.41
-24.88
-35.26
-44.85
-54.67
-65.18
-76.25
-86.32
-92.32
-90.38
-77.22
-52.18
-17.93
19.84
54.71
81.42
97.13
100.88
92.22
71.24
39.65
2.41
-32.28
-54.42
-58.44
-45.93
-24.98
-5.92
4.08
4.13
-1.42
-6.55
-7.45
-4.60
-0.84
1.19
0.89
-0.32
-0.45
1.63
5.48
9.74
12.65
13.23
11.90
9.85
8.55
9.10
11.91
16.70
22.78
29.17
35.31
41.07
46.52
51.70
56.52
60.41
62.57
62.11
58.13
50.07
37.85
21.94
3.39
-16.29
-35.52
-52.73
-66.89
-77.50
-84.55
-88.46
-89.73
-89.15
-88.06
-88.17
-90.85
-95.93
-100.82
-100.78
-91.07
-68.66
-35.03
3.78
39.46
64.90
77.06
77.81
72.17
65.64
61.71
60.97
62.28
64.55
67.55
71.30
74.62
74.57
67.57
52.20
30.92
10.48
-1.17
0.84
15.05
33.66
46.07
44.07
25.69
-4.35
-37.45
-65.54
-84.33
-93.86
-96.99
-96.93
-95.78
-94.52
-93.92
-94.89
-98.36
-103.94
-108.99
-108.91
-99.09
-77.39
-45.84
-10.55
20.72
41.73
50.08
47.75
39.57
30.68
24.34
21.21
19.87
18.17
14.85
9.82
3.89
-1.84
-6.76
-11.15
-15.84
-21.51
-28.15
-35.10
-41.36
-45.88
-47.40
-44.36
-35.07
-18.35
5.20
32.54
58.49
77.39
84.87
80.27
66.27
47.20
27.02
8.17
-8.21
-21.50
-30.74
-34.56
-31.99
-23.55
-11.32
1.73
12.82
20.37
24.51
26.69
28.86
32.60
38.33
45.28
52.10
57.59
61.35
63.86
66.29
69.81
75.22
82.74
91.93
101.77
110.64
116.42
116.88
110.45
97.04
78.54
58.35
40.33
27.27
20.05
17.55
17.54
17.91
17.55
16.51
15.37
14.59
14.04
13.56
13.37
14.30
17.28
22.44
28.31
31.67
29.22
18.09
-2.23
-29.26
-57.93
-82.13
-96.49
-97.86
-85.83
-62.39
-31.11
4.14
40.17
75.07
108.10
139.22
168.30
194.61
216.70
232.71
240.93
240.19
229.85
209.79
180.45
143.13
100.07
54.39
9.41
-32.13
-68.85
-100.93
-129.80
-157.47
-185.68
-215.41
-246.53
-277.92
-307.85
-334.20
-355.12
-369.40
-376.83
-378.31
-375.89
-372.61
-371.77
-375.47
-383.02
-390.06
-389.24
-372.75
-335.72
-278.87
-208.99
-136.65
-72.25
-22.35
11.76
33.13
46.55
56.23
64.49
71.98
78.73
84.78
90.46
96.37
103.30
112.16
123.51
137.41
152.90
167.77
178.52
180.69
169.77
142.61
99.06
43.13
-17.03
-70.96
-108.79
-124.35
-116.87
-90.78
-53.61
-13.10
24.97
57.92
85.87
110.92
136.10
164.13
196.22
231.20
265.46
293.96
312.16
317.80
311.43
295.63
273.02
245.00
211.71
173.07
130.11
85.41
42.75
5.47
-24.55
-47.34
-64.06
-75.48
-80.99
-78.63
-66.29
-43.08
-11.22
23.89
54.05
70.37
65.93
38.09
-10.69
-73.79
-142.22
-205.16
-250.10
-267.08
-252.96
-212.93
-156.83
-94.41
-35.30
17.54
60.85
90.20
100.50
88.20
53.34
-0.13
-63.01
-121.56
-161.98
-176.89
-167.96
-145.11
-121.11
-105.20
-99.64
-100.36
-101.11
-97.39
-90.14
-81.48
-73.68
-67.40
-61.30
-53.02
-41.04
-26.08
-10.92
0.43
5.28
3.11
-5.09
-16.50
-27.49
-35.49
-39.92
-41.78
-42.69
-43.05
-41.77
-36.53
-24.74
-4.11
25.51
62.02
101.62
140.34
175.46
205.69
231.25
253.50
275.63
300.63
329.80
361.44
390.50
409.59
411.09
390.67
342.37
269.76
184.40
101.52
33.67
-13.61
-42.13
-57.82
-66.11
-69.99
-69.21
-63.05
-51.92
-37.95
-23.97
-11.70
-3.68
-1.25
-5.05
-14.62
-30.32
-53.45
-85.52
-126.05
-169.51
-207.50
-231.36
-236.48
-223.74
-199.38
-171.51
-147.62
-128.24
-110.92
-93.69
-77.24
-65.37
-62.37
-70.00
-84.52
-98.38
-102.62
-92.03
-67.76
-36.02
-4.98
19.56
35.98
46.14
53.23
59.62
65.49
69.63
70.96
69.47
66.29
63.22
61.55
61.54
62.32
61.96
58.37
50.77
38.66
22.83
4.85
-13.35
-29.84
-43.02
-51.28
-53.89
-50.83
-42.86
-31.24
-17.70
-3.81
9.34
21.44
32.76
43.52
53.80
63.03
70.68
75.13
74.89
68.68
55.48
34.93
8.06
-21.89
-49.28
-67.37
-71.70
-62.05
-42.77
-21.08
-4.04
4.33
4.17
-1.29
-8.08
-13.57
-16.97
-18.74
-19.53
-19.62
-19.06
-18.02
-17.06
-16.93
-17.99
-20.02
-22.25
-23.88
-24.83
-25.84
-27.87
-31.63
-36.91
-42.43
-46.24
-46.69
-42.14
-31.79
-16.06
3.14
22.26
36.63
41.92
35.77
19.53
-2.01
-22.41
-36.21
-41.26
-39.41
-35.21
-33.16
-35.13
-39.01
-39.76
-32.08
-13.33
14.82
47.17
77.11
99.47
112.25
117.13
117.50
116.31
114.40
110.26
101.95
88.80
72.40
55.97
42.64
33.49
26.75
18.51
3.98
-19.27
-50.11
-84.14
-115.42
-138.85
-152.10
-155.66
-149.59
-136.85
-119.88
-99.84
-77.06
-52.32
-27.37
-4.84
13.23
26.41
35.60
43.06
50.90
59.68
67.92
73.81
74.08
66.27
49.37
23.81
-7.67
-40.14
-67.13
-82.25
-80.62
-61.13
-26.38
18.20
66.14
112.20
153.10
187.19
212.69
227.98
231.45
223.21
205.96
184.91
166.52
156.12
155.54
159.43
159.93
147.93
117.14
66.97
3.21
-63.56
-122.02
-164.23
-189.23
-201.39
-208.27
-216.86
-231.50
-253.49
-281.39
-311.68
-331.95
-331.18
-303.48
-252.65
-190.53
-130.45
-81.66
-46.86
-23.61
-7.56
3.25
8.63
7.41
-0.28
-11.80
-23.23
-31.24
-34.49
-34.07
-33.47
-36.30
-44.42
-56.95
-70.47
-80.90
-85.87
-83.80
-75.11
-62.23
-48.20
-35.41
-24.88
-15.86
-6.96
3.19
15.61
30.64
47.85
66.62
86.50
105.14
121.93
136.83
149.90
161.25
170.69
177.76
181.79
182.13
178.39
170.86
160.26
147.78
135.01
123.45
114.15
107.32
102.32
97.84
92.85
86.66
79.36
71.74
64.85
59.65
56.82
56.73
59.22
63.21
66.11
64.17
53.73
33.10
3.93
-28.82
-58.66
-80.18
-91.10
-92.81
-89.11
-84.01
-79.96
-77.49
-75.82
-74.05
-71.73
-68.78
-65.11
-60.36
-54.08
-46.09
-36.57
-26.22
-16.03
-6.96
0.14
4.85
7.41
8.63
9.75
11.95
15.82
21.10
26.44
30.14
30.82
27.97
22.06
14.25
5.90
-1.97
-8.85
-14.70
-19.62
-23.64
-26.59
-28.26
-28.49
-27.36
-25.24
-22.65
-20.11
-17.97
-16.36
-15.21
-14.42
-13.80
-13.15
-12.37
-11.37
-10.21
-9.01
-7.97
-7.25
-6.97
-7.01
-7.05
-6.78
-5.86
-4.21
-1.92
0.81
3.74
6.68
9.48
12.08
14.40
16.34
17.70
18.28
18.11
17.52
17.11
17.62
19.72
23.73
29.51
36.49
43.98
51.56
59.35
67.90
77.85
89.45
102.41
115.74
128.26
138.29
144.42
145.67
141.71
132.96
120.79
107.32
95.13
86.39
82.06
81.61
83.36
85.39
86.47
86.49
86.22
86.50
87.64
89.05
89.71
88.72
85.80
81.39
76.38
71.73
68.05
65.50
63.64
61.56
58.29
53.09
45.82
37.03
27.64
18.30
9.01
-1.18
-13.63
-29.56
-49.40
-72.72
-98.45
-125.43
-152.93
-180.66
-208.63
-236.88
-265.28
-293.65
-321.67
-348.75
-373.60
-394.02
-407.11
-410.13
-401.53
-381.87
-353.77
-321.13
-287.63
-255.54
-225.30
-195.96
-166.33
-135.95
-105.49
-76.35
-49.88
-26.73
-6.77
10.60
25.88
39.06
49.76
57.65
62.79
65.80
67.60
68.99
70.29
71.31
71.62
70.96
69.61
68.40
68.49
70.98
76.43
84.58
94.45
104.62
113.78
121.19
126.91
131.68
136.53
142.17
148.55
154.84
159.65
161.63
160.04
154.80
146.31
134.99
121.21
105.61
89.44
74.35
62.04
53.39
47.76
42.91
35.60
22.52
1.23
-29.45
-69.45
-117.25
-169.78
-222.59
-270.70
-309.68
-336.59
-350.24
-350.79
-339.81
-318.90
-289.09
-250.83
-204.84
-152.80
-97.39
-42.06
9.27
50.98
78.08
88.25
83.42
68.97
51.84
38.46
33.12
37.05
46.05
54.16
56.94
53.41
45.25
35.19
26.18
20.95
21.08
22.64
18.98
3.78
-26.12
-70.45
-126.48
-189.72
-254.69
-295.50
-292.10
-241.65
-161.66
-75.24
2.98
68.39
121.53
163.86
196.34
216.14
220.94
211.74
193.70
173.72
157.08
146.19
141.11
140.60
140.36
136.67
128.43
117.83
108.49
103.05
102.34
105.84
112.50
119.48
124.44
126.56
126.84
126.86
127.61
128.28
127.46
123.71
115.33
101.38
82.18
59.30
34.96
11.12
-11.24
-31.51
-49.20
-63.96
-75.37
-82.97
-86.53
-86.42
-83.97
-81.04
-79.24
-79.34
-81.08
-83.28
-84.54
-83.74
-80.57
-75.78
-70.82
-67.26
-66.56
-69.73
-76.74
-85.66
-92.46
-92.01
-80.00
-55.25
-21.06
15.58
46.64
66.28
73.20
70.38
62.81
54.93
49.12
45.41
42.57
38.77
32.14
20.96
4.30
-17.13
-40.27
-60.13
-71.32
-70.02
-55.11
-30.09
0.11
30.77
58.67
82.03
99.56
110.39
113.79
109.69
99.11
84.48
68.72
54.20
42.17
32.46
24.13
16.07
7.72
-1.05
-9.33
-16.06
-20.34
-21.99
-21.43
-19.38
-16.59
-13.53
-10.29
-6.56
-2.18
2.94
8.29
13.03
16.19
16.90
14.56
9.43
2.41
-5.31
-12.16
-16.63
-17.42
-13.82
-5.73
5.95
19.94
34.55
48.05
58.84
65.95
68.99
68.14
64.17
57.59
49.28
40.25
31.56
24.23
19.39
17.82
19.86
25.35
32.79
40.48
46.80
50.47
50.88
47.95
41.72
31.70
20.87
9.65
-2.29
-15.58
-31.05
-49.46
-71.20
-95.88
-121.70
-145.29
-162.83
-170.53
-166.05
-149.55
-123.55
-91.90
-58.25
-25.07
6.80
36.91
65.01
90.35
111.61
127.38
136.57
138.70
133.80
122.21
104.00
79.40
48.82
13.28
-25.22
-63.69
-98.41
-125.71
-142.85
-148.98
-145.00
-133.17
-116.44
-97.25
-77.04
-56.05
-34.38
-12.29
9.47
30.06
48.73
64.90
78.46
89.83
99.95
109.46
118.64
127.48
135.90
143.89
151.04
157.37
163.38
170.61
179.85
191.13
203.65
216.08
226.70
232.15
229.61
217.72
198.45
173.00
142.28
106.75
67.25
24.74
-22.65
-75.73
-132.85
-186.53
-231.95
-266.31
-289.23
-300.90
-302.65
-301.69
-304.93
-316.22
-330.30
-345.12
-359.42
-372.80
-383.04
-388.02
-392.99
-403.66
-423.29
-445.06
-467.94
-492.93
-522.43
-555.47
-551.35
-485.86
-361.62
-247.26
-161.81
-107.95
-69.85
-42.38
-21.82
-5.42
3.03
0.43
-12.72
-25.20
-31.88
-31.01
-24.56
-13.55
0.88
13.78
21.20
22.16
23.91
29.12
38.12
48.82
60.82
74.14
88.14
102.40
117.11
135.97
159.01
184.84
210.56
235.74
260.28
285.93
313.55
342.26
370.86
395.89
414.54
424.84
429.60
432.96
443.17
466.38
504.29
553.74
607.88
659.15
700.08
727.86
709.64
626.06
478.75
291.80
96.82
-82.10
-224.63
-337.60
-426.56
-493.83
-535.07
-546.81
-527.11
-479.53
-409.01
-324.47
-238.08
-159.02
-93.97
-42.36
-1.28
31.63
56.02
70.47
74.02
66.57
51.80
33.85
18.35
9.06
6.87
9.35
13.03
14.77
12.38
6.77
-0.29
-5.98
-8.25
-6.56
-2.38
2.61
6.80
9.08
10.01
10.63
12.16
15.33
21.81
28.78
34.08
36.10
34.13
28.90
22.01
15.32
10.70
9.17
10.34
13.52
17.59
21.62
25.34
29.01
33.12
38.29
44.28
49.66
53.03
53.10
49.43
42.86
35.22
29.01
27.59
33.87
49.39
73.84
104.18
135.09
160.64
176.58
178.12
166.34
146.65
126.25
111.24
104.18
103.78
106.49
108.54
107.35
102.55
94.37
82.57
66.35
44.49
15.90
-20.09
-63.36
-112.20
-162.22
-206.64
-237.43
-247.55
-233.32
-195.64
-139.65
-72.94
-3.72
60.62
113.25
147.80
158.98
144.08
104.55
46.55
-20.46
-86.54
-144.07
-189.56
-223.36
-248.01
-266.58
-281.68
-295.49
-310.32
-328.63
-351.98
-379.77
-408.13
-429.99
-436.90
-422.00
-382.80
-322.39
-248.67
-171.64
-100.17
-39.76
8.24
45.85
76.71
104.93
134.34
167.71
205.74
246.02
282.66
307.36
312.25
293.18
252.90
201.66
154.46
126.13
126.14
155.52
206.88
267.21
321.57
358.06
370.81
360.21
331.41
291.85
248.99
208.80
175.15
147.66
125.32
107.77
95.24
87.25
81.87
76.17
67.26
53.90
31.60
-1.73
-44.74
-93.93
-145.96
-198.82
-250.98
-300.67
-343.97
-383.92
-421.62
-454.30
-477.26
-487.22
-484.33
-471.13
-451.38
-426.47
-407.35
-401.68
-410.33
-430.00
-456.74
-488.99
-526.76
-571.47
-567.11
-485.27
-335.62
-158.93
2.78
128.85
217.79
278.31
308.72
324.77
327.27
314.72
288.41
249.80
200.00
137.55
70.41
1.52
-65.02
-134.61
-209.70
-264.62
-276.17
-233.36
-144.63
-31.41
81.02
175.69
239.38
269.43
272.79
258.12
233.52
204.19
173.68
143.48
116.88
94.36
76.29
63.42
54.26
47.10
39.08
31.13
24.13
20.64
21.77
27.66
37.80
50.23
62.80
73.68
82.43
88.34
92.46
96.51
101.94
109.97
121.48
136.81
155.62
177.31
199.94
218.68
230.40
233.06
220.23
189.74
143.98
89.06
37.24
-9.51
-52.31
-92.41
-129.95
-162.09
-183.63
-189.61
-176.95
-144.83
-95.18
-29.50
47.10
124.67
190.10
231.71
242.90
224.40
184.08
133.27
84.30
45.86
20.81
7.38
2.30
2.89
7.96
17.16
29.06
41.80
52.84
60.16
63.43
64.25
64.96
67.22
72.05
77.15
79.92
78.19
71.24
60.17
47.67
37.00
30.36
28.59
30.70
34.95
39.30
42.43
44.20
45.46
47.55
50.92
55.27
59.20
60.94
58.83
51.93
40.09
23.40
5.60
-11.67
-28.09
-44.68
-63.06
-84.36
-108.84
-135.73
-163.73
-191.27
-217.84
-243.46
-268.87
-295.17
-323.05
-353.24
-386.69
-423.66
-462.21
-497.56
-521.91
-527.10
-507.66
-462.30
-395.24
-315.07
-231.60
-152.36
-81.13
-17.98
38.32
88.74
134.91
178.25
219.81
260.28
299.90
338.21
374.23
405.86
421.52
411.91
375.17
318.51
253.31
188.91
130.13
78.50
32.99
-8.33
-45.81
-78.88
-106.95
-129.52
-146.48
-159.65
-168.31
-171.94
-170.38
-162.84
-148.82
-128.94
-104.53
-77.93
-51.63
-27.41
-6.90
8.88
20.38
29.03
32.75
30.64
22.17
7.34
-13.00
-37.80
-65.83
-95.41
-124.86
-152.91
-178.12
-199.58
-216.67
-228.91
-236.19
-238.75
-237.01
-231.62
-223.48
-213.15
-201.29
-188.48
-175.13
-161.55
-147.70
-133.53
-119.16
-104.94
-91.13
-77.95
-65.57
-54.07
-43.52
-33.74
-24.69
-16.50
-9.48
-3.78
0.65
4.06
6.86
9.41
12.71
17.40
23.63
30.98
38.86
46.92
55.09
63.50
72.13
82.73
96.36
112.65
129.73
145.11
157.00
164.99
169.92
173.32
181.39
199.55
230.30
272.15
320.71
370.81
418.43
461.32
499.22
540.35
591.87
655.31
723.72
784.19
823.68
834.83
818.32
781.80
745.79
729.37
744.03
790.83
863.90
955.38
1058.21
1165.05
1208.66
1139.74
941.78
643.39
300.76
-32.05
-321.71
-555.90
-736.47
-871.83
-962.23
-1008.13
-1012.73
-987.09
-944.54
-897.01
-852.29
-813.99
-782.83
-750.71
-710.02
-657.02
-593.78
-525.84
-460.52
-402.73
-354.58
-316.08
-281.42
-244.84
-202.88
-155.87
-106.57
-58.28
-12.78
29.70
69.66
109.36
149.52
188.23
221.06
243.10
251.07
244.76
226.74
200.83
171.36
141.35
112.06
83.36
54.81
26.40
-0.94
-25.57
-45.75
-60.03
-67.54
-68.07
-62.08
-50.52
-34.94
-17.34
-0.14
14.19
23.71
27.57
26.30
21.62
15.79
10.78
7.71
6.79
7.59
9.61
12.57
16.47
21.57
28.26
36.85
47.24
58.76
70.14
79.76
86.08
87.89
84.49
75.51
60.69
39.87
13.37
-17.57
-50.51
-82.18
-109.37
-129.60
-141.45
-144.55
-139.30
-126.67
-108.21
-85.99
-62.47
-40.79
-23.58
-12.08
-5.65
-2.11
1.35
6.96
15.68
27.20
38.79
47.30
50.50
48.11
41.86
34.57
28.91
26.63
28.79
33.25
37.12
37.97
34.64
27.26
16.45
2.45
-15.13
-36.43
-65.18
-105.38
-160.01
-229.65
-311.93
-402.17
-494.57
-583.12
-647.04
-668.74
-637.32
-554.60
-435.03
-298.82
-163.98
-42.64
53.66
127.26
178.94
209.04
218.61
210.70
189.94
161.35
128.44
93.21
57.09
17.12
-29.98
-85.47
-146.44
-205.11
-250.60
-272.55
-264.95
-227.78
-169.79
-103.57
-41.05
10.20
48.30
75.60
95.96
112.75
128.66
144.25
159.73
175.30
190.71
204.77
215.45
220.66
219.31
212.71
203.28
193.80
186.07
179.80
172.70
161.18
141.80
112.65
74.10
28.57
-19.80
-66.04
-105.56
-135.15
-153.91
-163.76
-168.86
-174.06
-182.90
-195.61
-208.51
-215.34
-209.75
-188.38
-152.94
-109.76
-67.04
-31.40
-4.98
14.80
32.90
53.96
80.12
110.85
144.23
178.41
211.59
241.19
263.26
273.29
268.66
251.10
227.42
207.56
200.71
211.50
238.17
273.37
307.20
330.96
339.89
333.91
316.44
291.88
263.10
230.03
190.02
139.78
78.03
7.20
-67.15
-138.71
-203.21
-259.97
-311.25
-359.97
-407.60
-453.50
-495.83
-532.79
-563.00
-584.61
-594.16
-586.57
-556.81
-502.67
-426.97
-337.44
-244.44
-157.35
-81.81
-19.00
32.92
76.61
113.89
145.32
170.96
191.08
206.45
218.06
226.62
232.50
236.05
237.89
239.06
240.49
242.28
243.30
241.45
234.37
220.57
200.04
174.32
146.01
117.99
92.77
72.15
57.18
48.21
44.94
46.49
51.44
58.06
64.71
70.15
73.78
75.67
76.26
76.02
75.09
73.18
69.66
63.93
55.77
45.63
34.46
23.53
13.84
6.02
0.11
-4.24
-7.52
-10.19
-12.44
-14.27
-15.52
-16.08
-15.99
-15.50
-15.03
-14.99
-15.66
-16.96
-18.56
-19.94
-20.73
-20.83
-20.39
-19.78
-19.37
-19.40
-19.96
-21.05
-22.52
-24.13
-25.59
-26.48
-26.52
-25.60
-23.97
-22.07
-20.43
-19.37
-18.86
-18.63
-18.22
-17.33
-15.93
-14.25
-12.65
-11.42
-10.65
-10.20
-9.83
-9.30
-8.52
-7.57
-6.58
-5.63
-4.67
-3.53
-2.01
0.02
2.46
5.09
7.56
9.58
10.97
11.69
11.86
11.59
11.05
10.34
9.54
8.71
7.89
7.12
6.41
5.77
5.17
4.61
4.05
3.50
2.96
2.42
1.96
1.68
1.65
1.82
2.01
1.95
1.44
0.53
-0.42
-0.80
-0.16
1.56
3.88
5.92
6.85
6.20
4.04
0.91
-2.56
-5.75
-8.16
-9.25
-8.42
-5.15
0.75
8.74
17.71
26.27
33.40
38.84
43.10
47.07
51.24
55.42
58.69
60.07
59.15
56.46
53.30
50.92
49.70
48.59
45.36
37.34
22.69
1.28
-25.06
-53.01
-78.80
-99.33
-112.90
-119.35
-119.88
-116.60
-111.92
-107.82
-104.92
-102.04
-96.27
-84.11
-63.08
-33.28
2.16
37.97
68.61
90.30
101.99
105.11
102.28
95.88
87.08
75.95
62.07
45.37
26.72
7.81
-9.23
-22.73
-32.04
-37.80
-41.29
-43.61
-45.00
-44.59
-41.13
-33.89
-23.45
-11.66
-0.87
7.11
11.71
13.51
13.48
11.99
8.52
1.94
-8.49
-22.26
-37.48
-51.49
-62.16
-69.04
-73.87
-79.95
-90.81
-108.55
-132.60
-159.67
-184.46
-201.36
-205.95
-195.99
-171.50
-134.47
-88.32
-37.45
13.15
58.56
94.77
119.66
133.58
139.07
139.56
137.77
134.53
128.66
118.20
101.98
80.82
57.78
37.03
22.39
16.07
18.14
26.84
39.59
53.89
67.88
80.39
90.64
97.92
101.56
101.06
96.31
87.88
76.99
65.37
54.79
46.65
41.66
40.00
41.54
46.21
54.28
66.21
82.24
101.91
123.73
145.43
164.39
178.34
185.78
186.18
179.69
166.84
148.15
123.96
94.65
61.16
24.98
-11.77
-46.89
-78.72
-106.61
-130.86
-152.39
-172.27
-191.25
-210.19
-229.99
-251.14
-273.02
-293.64
-310.01
-319.27
-319.62
-309.76
-289.09
-256.74
-211.18
-150.86
-75.71
11.96
107.45
204.59
297.74
381.10
448.72
495.01
516.11
511.75
486.11
447.19
404.44
367.09
339.93
322.44
309.84
295.35
272.84
238.74
192.75
129.51
50.73
-36.57
-121.67
-194.22
-247.73
-280.99
-296.85
-300.13
-295.85
-286.99
-275.94
-264.14
-251.95
-238.47
-222.23
-202.25
-179.66
-157.76
-139.83
-128.35
-123.50
-123.11
-123.77
-122.61
-118.51
-112.25
-105.36
-98.34
-90.98
-82.65
-73.29
-63.67
-55.00
-48.22
-43.54
-40.51
-37.75
-34.26
-29.60
-24.15
-18.78
-14.26
-10.68
-7.48
-3.40
3.04
12.65
25.54
40.86
57.19
72.95
87.23
98.93
107.23
111.20
109.69
101.55
86.00
63.22
34.38
2.65
-28.69
-56.71
-79.52
-96.66
-108.72
-117.05
-123.16
-128.57
-134.48
-141.14
-147.07
-149.14
-143.66
-128.20
-103.65
-74.57
-48.06
-30.94
-26.98
-34.96
-50.08
-66.12
-77.98
-83.13
-81.43
-73.76
-60.62
-41.80
-16.89
13.62
47.17
80.21
108.78
129.69
141.78
145.96
144.77
141.17
137.91
135.86
135.14
135.49
136.49
137.21
135.63
128.64
112.95
87.13
52.97
15.64
-18.23
-43.16
-56.92
-60.89
-58.61
-53.71
-48.32
-43.08
-37.90
-33.14
-29.70
-28.63
-29.83
-31.99
-33.15
-31.77
-27.39
-21.00
-14.16
-7.99
-2.51
3.79
13.06
26.87
44.99
65.05
82.89
94.22
96.30
88.97
74.57
56.64
38.51
21.62
5.85
-10.55
-29.19
-50.83
-74.56
-97.95
-117.33
-128.39
-126.36
-108.30
-74.90
-31.82
10.43
39.33
45.22
26.42
-9.10
-46.27
-69.45
-69.63
-47.81
-13.64
20.23
43.96
54.68
55.42
51.16
45.44
38.57
28.99
15.79
-0.14
-17.31
-34.44
-51.80
-70.98
-92.67
-114.97
-133.57
-143.16
-139.01
-121.53
-93.82
-60.57
-26.38
5.51
33.38
56.70
75.68
90.69
102.23
110.76
116.14
117.42
113.26
101.91
82.00
53.68
19.11
-16.28
-45.31
-61.31
-60.81
-45.20
-20.45
5.21
24.96
35.61
38.09
35.77
32.10
28.75
25.52
21.67
17.14
13.21
11.76
13.74
18.57
24.29
28.51
28.97
25.01
17.25
7.09
-3.86
-14.22
-23.09
-30.17
-36.43
-44.77
-58.35
-79.55
-107.88
-138.78
-164.15
-175.17
-165.87
-134.60
-87.59
-34.07
16.51
58.54
88.84
106.03
109.63
100.16
80.03
54.27
29.89
13.77
8.97
13.54
21.70
26.80
24.37
13.53
-3.49
-22.78
-41.30
-57.68
-71.93
-84.50
-95.37
-104.46
-111.44
-116.32
-118.66
-117.65
-112.18
-100.94
-83.17
-59.28
-31.10
-1.57
26.02
49.46
68.19
83.04
95.57
106.93
117.15
124.88
128.37
126.61
119.50
108.78
97.27
88.09
83.68
85.12
91.58
99.92
104.66
99.26
78.73
42.53
-3.40
-47.66
-77.16
-82.47
-62.08
-23.24
20.87
56.21
72.57
66.35
40.84
4.49
-31.85
-57.92
-66.72
-56.31
-29.85
5.86
43.05
74.80
96.24
104.45
98.02
77.48
46.24
10.73
-20.69
-40.59
-45.38
-36.71
-20.54
-4.25
6.46
9.42
5.68
-1.67
-9.34
-15.06
-17.78
-17.76
-16.06
-14.21
-13.44
-14.39
-16.79
-19.72
-22.27
-23.87
-24.74
-25.55
-27.14
-30.10
-34.66
-40.27
-45.84
-50.48
-53.18
-53.08
-49.49
-42.03
-30.89
-16.53
0.47
19.24
38.84
58.56
77.28
93.71
106.10
112.59
111.64
102.49
85.12
60.45
30.25
-3.24
-36.82
-66.69
-89.34
-102.50
-106.16
-102.86
-96.49
-90.47
-86.72
-84.53
-81.68
-76.09
-67.18
-55.85
-43.86
-32.33
-20.18
-7.03
8.31
26.33
46.25
66.05
84.44
100.05
112.14
120.31
124.00
122.86
116.27
103.66
84.58
59.79
30.65
-0.69
-31.84
-60.68
-85.49
-105.24
-119.70
-129.43
-134.41
-135.06
-131.66
-124.31
-113.14
-98.42
-80.64
-57.56
-32.05
-5.38
21.57
48.44
75.13
101.53
127.04
150.61
170.58
183.98
188.48
182.05
163.84
134.97
98.74
59.53
22.17
-9.08
-31.46
-43.36
-44.98
-37.85
-23.56
-3.61
19.55
42.53
61.31
71.67
70.35
54.73
22.91
-25.61
-86.68
-156.18
-229.49
-300.05
-359.81
-400.87
-418.66
-414.04
-391.19
-357.16
-321.01
-291.03
-271.35
-261.13
-255.84
-249.72
-237.25
-210.89
-163.47
-91.87
1.35
109.97
225.87
340.13
443.83
511.61
521.07
469.93
378.77
273.62
172.77
83.25
4.71
-66.03
-131.49
-189.22
-235.77
-269.08
-290.04
-299.43
-299.41
-293.01
-282.63
-268.39
-245.79
-208.68
-152.52
-77.71
13.39
114.35
215.97
309.43
389.25
454.87
508.31
551.63
586.00
615.90
642.25
660.96
664.83
646.97
603.62
535.11
446.38
319.52
165.82
17.38
-94.67
-159.45
-184.81
-184.95
-171.85
-152.95
-130.24
-102.17
-71.58
-45.44
-30.90
-31.57
-46.90
-73.79
-112.55
-157.48
-199.67
-234.93
-263.74
-287.06
-302.31
-303.62
-285.53
-247.13
-193.12
-131.86
-74.79
-31.91
-7.78
-0.38
-3.74
-11.46
-19.09
-24.07
-24.91
-21.39
-13.98
-3.91
6.19
12.11
9.54
-3.35
-23.06
-41.47
-49.33
-40.92
-17.29
13.62
40.72
54.78
52.57
37.50
16.41
-4.15
-20.59
-31.86
-38.17
-39.77
-37.25
-32.21
-27.26
-24.91
-25.58
-27.70
-27.37
-20.69
-5.90
15.51
39.61
61.94
79.25
89.27
90.69
83.10
67.22
45.17
20.67
-1.76
-18.09
-26.12
-26.24
-21.30
-15.36
-12.75
-16.97
-29.72
-49.15
-71.24
-89.50
-97.34
-90.94
-71.24
-43.86
-16.94
2.44
11.34
10.91
5.19
-1.81
-8.16
-14.23
-21.49
-30.78
-41.41
-51.24
-58.38
-61.90
-62.23
-60.99
-59.23
-57.29
-54.69
-50.42
-43.61
-34.25
-23.28
-12.38
-3.46
2.37
4.86
4.70
3.20
1.63
0.73
0.59
0.66
0.17
-1.13
-3.13
-5.35
-7.15
-8.18
-8.54
-8.73
-9.54
-11.64
-14.85
-18.58
-21.95
-24.14
-24.78
-24.14
-23.02
-22.43
-23.08
-24.48
-25.62
-25.12
-21.78
-14.97
-4.81
8.26
23.99
39.40
53.88
67.81
82.21
98.23
116.82
138.53
163.05
188.75
212.40
230.01
237.35
231.76
213.51
186.15
155.26
126.30
102.56
84.32
70.06
57.57
45.65
34.60
25.61
19.56
16.10
13.59
9.88
3.60
-5.53
-16.56
-28.00
-38.59
-47.78
-55.86
-63.62
-71.72
-80.22
-88.43
-95.19
-99.33
-100.06
-97.42
-92.25
-85.86
-79.56
-74.28
-70.29
-67.37
-65.03
-62.81
-60.58
-58.50
-56.93
-56.10
-55.94
-56.06
-55.87
-54.85
-52.78
-49.80
-46.32
-42.82
-39.57
-36.53
-33.36
-29.64
-25.09
-19.69
-13.74
-7.73
-2.14
2.77
7.14
11.50
16.54
22.83
30.64
39.72
49.52
59.40
68.94
78.05
86.95
95.96
105.19
114.48
123.38
131.41
138.06
142.85
145.29
144.88
141.18
133.77
122.56
107.91
90.62
71.71
52.27
33.17
15.18
-1.03
-14.82
-25.67
-33.28
-37.72
-39.42
-39.00
-36.99
-33.52
-28.34
-21.17
-12.14
-1.86
8.60
18.20
26.53
33.84
41.16
49.71
59.88
71.01
81.66
90.25
95.68
97.76
96.70
93.20
87.86
80.29
69.40
53.96
33.16
6.80
-24.57
-59.97
-97.21
-133.28
-165.75
-192.82
-213.75
-229.14
-240.68
-249.95
-257.38
-259.86
-251.27
-226.09
-181.55
-119.45
-46.27
28.92
101.35
163.70
208.44
235.91
246.69
239.24
211.56
163.61
99.11
25.67
-47.82
-112.61
-162.27
-194.91
-212.03
-216.44
-211.01
-198.11
-179.64
-157.67
-133.44
-107.15
-78.73
-47.27
-10.93
32.11
82.67
139.75
200.19
259.92
314.86
361.26
396.85
421.51
437.28
447.79
456.58
465.16
471.77
471.41
457.01
422.65
366.49
292.28
208.42
125.30
51.98
-5.97
-46.87
-72.15
-84.74
-88.05
-85.35
-79.78
-74.42
-72.19
-75.51
-86.03
-104.73
-131.85
-167.69
-211.87
-263.08
-318.81
-375.63
-429.74
-477.59
-516.89
-546.52
-567.97
-583.91
-597.43
-610.56
-623.03
-631.66
-630.16
-612.17
-573.02
-514.58
-443.90
-371.49
-307.43
-258.37
-226.28
-208.16
-199.92
-196.66
-196.88
-199.95
-205.62
-213.00
-220.94
-228.81
-235.61
-241.97
-229.44
-185.10
-104.76
2.96
121.15
233.54
324.02
396.74
457.57
510.62
555.37
591.30
616.94
633.75
645.63
656.90
671.36
688.54
705.88
718.07
720.86
712.44
694.41
670.24
642.85
613.70
580.51
540.08
489.25
427.92
359.48
290.29
227.21
175.20
136.68
110.51
94.10
84.13
77.94
73.59
69.95
66.26
61.85
56.36
49.12
39.58
27.03
10.72
-10.23
-36.47
-68.29
-105.53
-147.42
-192.88
-240.50
-288.53
-335.00
-377.79
-414.54
-442.86
-460.67
-466.51
-459.96
-441.78
-413.85
-379.13
-341.59
-305.76
-275.95
-254.93
-242.54
-235.26
-226.89
-210.68
-182.10
-140.77
-90.75
-38.89
7.75
44.34
69.22
83.41
89.34
89.64
86.76
83.00
80.47
80.46
82.46
83.66
79.40
64.98
37.78
-0.87
-45.64
-88.89
-123.26
-144.12
-150.65
-145.51
-133.39
-119.38
-107.71
-101.14
-100.82
-106.45
-116.43
-128.31
-139.34
-147.14
-150.22
-148.28
-142.07
-133.05
-122.85
-112.85
-103.98
-96.60
-90.58
-85.34
-80.00
-73.55
-65.11
-54.23
-41.11
-26.65
-12.22
0.80
11.50
19.78
26.37
32.41
38.82
45.72
52.02
55.79
54.87
47.89
34.95
17.90
-0.27
-16.40
-28.18
-34.69
-36.29
-34.12
-29.53
-23.82
-18.25
-14.18
-13.03
-15.87
-23.02
-33.79
-46.73
-60.04
-72.22
-82.28
-89.75
-94.28
-95.45
-92.74
-85.76
-74.60
-60.13
-44.09
-28.77
-16.40
-8.28
-4.20
-2.20
0.86
8.13
21.43
40.49
63.20
86.71
108.88
129.19
148.47
167.78
187.10
204.70
217.69
223.39
220.85
211.60
199.23
188.13
181.73
181.29
185.51
191.16
194.49
192.77
185.44
174.39
163.03
154.66
150.63
149.44
147.23
139.41
122.87
97.48
66.21
33.92
5.36
-16.62
-31.76
-42.08
-50.59
-60.05
-72.03
-86.66
-103.03
-119.58
-134.77
-147.23
-155.89
-159.97
-158.96
-152.83
-142.14
-128.23
-112.90
-98.01
-84.79
-73.57
-63.71
-53.97
-43.26
-31.16
-18.16
-5.41
5.91
15.21
22.76
29.45
36.17
43.07
49.26
52.98
52.40
46.41
35.12
19.83
2.39
-15.40
-32.24
-47.26
-59.74
-68.97
-74.40
-76.04
-74.80
-72.53
-71.47
-73.46
-79.20
-88.02
-98.16
-107.42
-113.76
-115.37
-110.71
-98.30
-77.03
-46.86
-9.54
30.95
69.14
99.50
118.40
125.39
123.29
116.81
110.45
106.75
105.54
104.86
102.51
97.64
91.25
85.55
82.76
83.83
88.14
93.76
98.40
100.27
98.72
94.26
88.31
82.59
78.56
76.90
77.26
78.57
79.53
79.28
77.76
75.47
72.90
70.10
66.55
61.45
54.33
45.19
34.38
22.12
7.97
-9.22
-30.79
-57.47
-88.79
-123.00
-157.49
-189.69
-217.81
-241.46
-261.68
-280.70
-301.19
-325.52
-354.93
-389.04
-425.59
-460.72
-489.63
-507.52
-510.82
-497.73
-468.95
-427.38
-377.41
-323.89
-271.12
-222.37
-179.70
-144.58
-117.35
-98.24
-86.97
-82.61
-83.47
-87.43
-92.52
-97.40
-102.21
-106.38
-109.96
-112.28
-111.85
-106.56
-94.35
-74.02
-45.86
-12.62
23.91
60.60
94.84
124.60
148.37
165.06
174.19
176.46
172.62
166.64
160.41
153.44
142.50
123.04
91.71
48.73
6.57
-37.77
-77.28
-109.85
-136.72
-160.24
-181.10
-197.29
-205.50
-203.66
-194.22
-179.93
-165.23
-152.02
-138.41
-119.92
-92.05
-53.31
-6.10
43.33
90.09
129.94
161.34
185.08
203.20
217.77
230.24
241.11
249.60
255.97
260.12
262.51
264.00
265.50
267.62
270.25
272.82
274.36
275.08
275.67
277.23
280.46
285.01
289.43
291.77
290.70
285.99
278.62
269.48
258.53
244.68
226.70
204.52
180.02
156.60
137.68
124.97
117.77
113.44
108.99
102.62
94.40
85.79
78.48
73.25
69.37
65.19
59.23
51.41
43.40
37.97
37.51
42.68
51.74
60.99
66.25
64.36
54.11
36.30
13.04
-13.14
-39.99
-65.82
-89.72
-111.45
-131.31
-149.65
-166.33
-180.33
-189.80
-192.80
-188.12
-176.05
-158.41
-137.94
-117.46
-99.05
-83.83
-72.03
-63.20
-56.46
-50.51
-43.64
-33.81
-19.14
1.29
26.52
53.33
76.71
91.34
93.40
81.95
59.22
29.74
-1.31
-29.33
-51.21
-65.39
-71.41
-69.45
-60.34
-45.58
-27.31
-7.74
11.50
29.83
47.21
63.48
77.62
87.43
90.13
83.45
66.82
42.19
13.53
-14.29
-36.61
-49.54
-50.22
-37.17
-10.66
26.66
70.24
113.68
150.32
175.57
188.53
191.96
190.88
189.99
191.69
196.87
204.06
210.94
215.41
216.12
211.96
201.68
184.47
160.63
134.99
113.88
103.57
108.10
128.22
161.85
205.36
254.66
304.95
352.84
392.20
414.98
414.11
386.97
337.42
274.68
209.65
133.80
44.86
-54.39
-155.13
-245.69
-316.58
-363.76
-388.68
-396.32
-393.12
-381.96
-364.99
-343.93
-320.29
-295.63
-271.41
-249.08
-229.75
-214.32
-200.90
-187.69
-173.61
-158.36
-142.29
-125.96
-110.06
-94.89
-80.80
-66.11
-49.54
-30.65
-9.97
11.19
31.68
49.11
61.41
66.42
64.09
54.53
37.92
14.65
-14.72
-48.14
-83.71
-119.27
-154.53
-186.65
-212.93
-231.37
-240.57
-239.76
-228.93
-208.96
-177.74
-139.45
-97.38
-54.32
-12.77
25.50
59.56
89.03
113.87
134.41
150.49
162.78
172.41
178.75
180.90
177.94
169.14
154.08
133.06
106.45
75.86
43.47
11.57
-18.11
-44.38
-66.57
-84.42
-97.89
-107.35
-113.07
-115.63
-116.35
-116.87
-118.72
-122.99
-130.08
-139.35
-149.44
-160.24
-169.02
-174.12
-174.89
-171.24
-163.08
-150.03
-131.21
-105.62
-71.04
-29.56
15.73
60.93
101.58
133.42
153.19
158.67
149.78
129.46
103.09
77.19
57.08
44.56
37.72
31.42
20.43
2.57
-19.51
-40.06
-52.56
-52.47
-38.07
-10.85
25.26
64.84
100.43
125.61
136.37
132.89
119.31
102.46
88.87
82.22
82.45
87.02
93.03
98.40
103.08
106.34
106.87
102.90
92.85
76.33
54.77
31.11
8.41
-10.91
-26.23
-38.08
-47.75
-56.17
-63.04
-66.73
-64.76
-54.85
-35.72
-8.00
26.15
63.21
99.33
131.43
157.81
177.99
192.65
202.86
209.47
212.92
213.02
209.58
202.71
193.29
182.00
169.52
155.39
137.29
113.89
82.30
39.49
-16.79
-87.45
-171.75
-265.69
-361.87
-450.49
-521.21
-565.85
-580.48
-566.64
-531.27
-484.99
-437.93
-397.23
-366.60
-346.86
-336.76
-333.50
-332.85
-329.89
-320.41
-300.09
-265.58
-216.33
-155.29
-88.18
-21.99
36.63
87.90
126.00
144.33
140.90
119.69
86.89
49.69
13.88
-15.85
-37.33
-47.66
-45.58
-31.08
-6.70
22.86
53.28
80.52
102.24
114.59
114.79
101.86
77.81
45.85
10.25
-21.77
-42.87
-45.45
-29.18
2.74
43.81
87.25
125.76
153.59
170.35
178.69
185.68
193.10
203.35
218.60
242.80
278.14
308.41
318.29
297.49
277.37
274.85
301.80
351.73
420.16
498.75
575.66
640.76
661.70
621.68
519.19
374.40
214.01
59.51
-79.29
-200.24
-301.90
-382.86
-438.10
-470.54
-484.23
-484.58
-475.84
-461.45
-442.64
-417.35
-382.48
-329.69
-261.16
-183.35
-105.67
-36.63
17.57
54.39
75.22
83.55
85.30
83.65
81.12
78.34
75.03
70.44
64.25
56.92
49.16
42.46
36.84
32.60
29.46
26.89
24.28
21.31
17.97
14.37
11.11
8.17
6.13
5.48
6.51
9.25
13.53
18.88
24.40
30.64
35.05
36.18
33.23
25.99
14.84
0.85
-14.48
-29.44
-42.28
-51.97
-57.57
-58.99
-56.96
-52.84
-48.42
-45.58
-45.87
-50.15
-58.69
-70.83
-85.36
-100.87
-116.00
-129.78
-141.80
-152.25
-161.59
-170.68
-180.29
-191.04
-203.10
-216.27
-229.85
-242.79
-253.68
-260.73
-261.79
-254.50
-237.89
-211.32
-175.20
-131.14
-81.79
-30.56
19.05
64.12
102.26
132.12
153.19
165.59
169.96
167.39
159.52
148.67
137.85
130.12
128.22
134.16
148.68
170.93
198.70
229.15
259.69
288.61
314.55
337.25
358.13
380.05
406.51
439.66
479.16
521.28
559.57
585.54
592.47
578.38
546.35
502.51
452.49
399.52
343.69
283.19
214.47
135.07
45.44
-51.24
-150.85
-249.74
-344.90
-433.73
-503.73
-542.01
-544.12
-516.02
-468.23
-410.71
-351.21
-294.85
-244.39
-200.69
-164.97
-137.82
-118.72
-105.66
-96.16
-87.90
-79.30
-68.96
-55.63
-39.62
-21.87
-3.51
14.81
32.13
47.16
58.34
64.07
62.83
51.11
28.87
-1.55
-35.84
-69.67
-99.28
-122.03
-136.73
-143.74
-145.04
-143.26
-141.25
-140.56
-142.01
-145.37
-150.01
-155.19
-160.52
-166.30
-172.98
-183.85
-197.46
-212.84
-228.78
-243.19
-252.49
-251.42
-235.11
-201.01
-150.79
-89.90
-27.11
29.12
73.29
103.85
123.09
134.19
139.49
139.79
135.58
127.28
116.50
105.83
92.68
76.30
55.76
30.38
0.20
-33.12
-67.03
-98.34
-123.85
-140.65
-145.38
-135.80
-111.81
-76.31
-35.29
3.21
31.84
46.33
46.25
34.72
15.42
-8.90
-36.17
-63.76
-87.49
-102.28
-104.66
-95.42
-80.17
-67.96
-67.41
-82.71
-112.01
-148.71
-184.55
-212.80
-229.78
-234.57
-227.81
-210.54
-183.57
-147.75
-104.27
-54.70
