,BVP,time
0,7.88,2021-12-17 17:46:24.171875
1,9.08,2021-12-17 17:46:24.187500
2,10.31,2021-12-17 17:46:24.203125
3,11.77,2021-12-17 17:46:24.218750
4,13.69,2021-12-17 17:46:24.234375
5,16.27,2021-12-17 17:46:24.250000
6,19.55,2021-12-17 17:46:24.265625
7,23.38,2021-12-17 17:46:24.281250
8,27.44,2021-12-17 17:46:24.296875
9,31.41,2021-12-17 17:46:24.312500
10,35.06,2021-12-17 17:46:24.328125
11,38.32,2021-12-17 17:46:24.343750
12,41.2,2021-12-17 17:46:24.359375
13,43.76,2021-12-17 17:46:24.375000
14,46.03,2021-12-17 17:46:24.390625
15,48.06,2021-12-17 17:46:24.406250
16,49.85,2021-12-17 17:46:24.421875
17,51.46,2021-12-17 17:46:24.437500
18,53.08,2021-12-17 17:46:24.453125
19,54.97,2021-12-17 17:46:24.468750
20,57.48,2021-12-17 17:46:24.484375
21,60.94,2021-12-17 17:46:24.500000
22,65.6,2021-12-17 17:46:24.515625
23,71.5,2021-12-17 17:46:24.531250
24,78.53,2021-12-17 17:46:24.546875
25,86.25,2021-12-17 17:46:24.562500
26,94.11,2021-12-17 17:46:24.578125
27,101.56,2021-12-17 17:46:24.593750
28,108.35,2021-12-17 17:46:24.609375
29,114.61,2021-12-17 17:46:24.625000
30,120.9,2021-12-17 17:46:24.640625
31,128.1,2021-12-17 17:46:24.656250
32,137.0,2021-12-17 17:46:24.671875
33,148.05,2021-12-17 17:46:24.687500
34,161.01,2021-12-17 17:46:24.703125
35,175.13,2021-12-17 17:46:24.718750
36,189.19,2021-12-17 17:46:24.734375
37,201.83,2021-12-17 17:46:24.750000
38,211.68,2021-12-17 17:46:24.765625
39,217.38,2021-12-17 17:46:24.781250
40,217.63,2021-12-17 17:46:24.796875
41,211.54,2021-12-17 17:46:24.812500
42,199.01,2021-12-17 17:46:24.828125
43,180.46,2021-12-17 17:46:24.843750
44,156.38,2021-12-17 17:46:24.859375
45,126.54,2021-12-17 17:46:24.875000
46,89.89,2021-12-17 17:46:24.890625
47,45.17,2021-12-17 17:46:24.906250
48,-8.0,2021-12-17 17:46:24.921875
49,-67.82,2021-12-17 17:46:24.937500
50,-129.61,2021-12-17 17:46:24.953125
51,-186.29,2021-12-17 17:46:24.968750
52,-230.56,2021-12-17 17:46:24.984375
53,-257.37,2021-12-17 17:46:25.000000
54,-265.85,2021-12-17 17:46:25.015625
55,-259.42,2021-12-17 17:46:25.031250
56,-244.64,2021-12-17 17:46:25.046875
57,-229.31,2021-12-17 17:46:25.062500
58,-220.47,2021-12-17 17:46:25.078125
59,-223.01,2021-12-17 17:46:25.093750
60,-238.9,2021-12-17 17:46:25.109375
61,-267.71,2021-12-17 17:46:25.125000
62,-306.7,2021-12-17 17:46:25.140625
63,-351.42,2021-12-17 17:46:25.156250
64,-395.98,2021-12-17 17:46:25.171875
65,-433.69,2021-12-17 17:46:25.187500
66,-458.31,2021-12-17 17:46:25.203125
67,-465.32,2021-12-17 17:46:25.218750
68,-453.45,2021-12-17 17:46:25.234375
69,-424.92,2021-12-17 17:46:25.250000
70,-384.59,2021-12-17 17:46:25.265625
71,-337.5,2021-12-17 17:46:25.281250
72,-286.87,2021-12-17 17:46:25.296875
73,-233.2,2021-12-17 17:46:25.312500
74,-175.23,2021-12-17 17:46:25.328125
75,-112.05,2021-12-17 17:46:25.343750
76,-45.31,2021-12-17 17:46:25.359375
77,20.19,2021-12-17 17:46:25.375000
78,77.81,2021-12-17 17:46:25.390625
79,121.09,2021-12-17 17:46:25.406250
80,146.14,2021-12-17 17:46:25.421875
81,152.49,2021-12-17 17:46:25.437500
82,142.53,2021-12-17 17:46:25.453125
83,120.55,2021-12-17 17:46:25.468750
84,92.07,2021-12-17 17:46:25.484375
85,63.37,2021-12-17 17:46:25.500000
86,40.74,2021-12-17 17:46:25.515625
87,29.59,2021-12-17 17:46:25.531250
88,32.87,2021-12-17 17:46:25.546875
89,50.42,2021-12-17 17:46:25.562500
90,79.11,2021-12-17 17:46:25.578125
91,113.67,2021-12-17 17:46:25.593750
92,148.4,2021-12-17 17:46:25.609375
93,178.01,2021-12-17 17:46:25.625000
94,198.91,2021-12-17 17:46:25.640625
95,209.43,2021-12-17 17:46:25.656250
96,210.27,2021-12-17 17:46:25.671875
97,204.24,2021-12-17 17:46:25.687500
98,195.39,2021-12-17 17:46:25.703125
99,187.64,2021-12-17 17:46:25.718750
100,183.26,2021-12-17 17:46:25.734375
101,182.39,2021-12-17 17:46:25.750000
102,183.09,2021-12-17 17:46:25.765625
103,182.58,2021-12-17 17:46:25.781250
104,178.5,2021-12-17 17:46:25.796875
105,169.99,2021-12-17 17:46:25.812500
106,157.56,2021-12-17 17:46:25.828125
107,142.6,2021-12-17 17:46:25.843750
108,126.46,2021-12-17 17:46:25.859375
109,109.77,2021-12-17 17:46:25.875000
110,93.27,2021-12-17 17:46:25.890625
111,77.94,2021-12-17 17:46:25.906250
112,65.47,2021-12-17 17:46:25.921875
113,58.34,2021-12-17 17:46:25.937500
114,59.78,2021-12-17 17:46:25.953125
115,72.96,2021-12-17 17:46:25.968750
116,100.19,2021-12-17 17:46:25.984375
117,141.78,2021-12-17 17:46:26.000000
118,195.34,2021-12-17 17:46:26.015625
119,256.42,2021-12-17 17:46:26.031250
120,319.22,2021-12-17 17:46:26.046875
121,377.77,2021-12-17 17:46:26.062500
122,426.84,2021-12-17 17:46:26.078125
123,462.65,2021-12-17 17:46:26.093750
124,483.02,2021-12-17 17:46:26.109375
125,487.4,2021-12-17 17:46:26.125000
126,476.61,2021-12-17 17:46:26.140625
127,452.39,2021-12-17 17:46:26.156250
128,417.02,2021-12-17 17:46:26.171875
129,372.81,2021-12-17 17:46:26.187500
130,321.83,2021-12-17 17:46:26.203125
131,265.96,2021-12-17 17:46:26.218750
132,207.16,2021-12-17 17:46:26.234375
133,147.68,2021-12-17 17:46:26.250000
134,89.89,2021-12-17 17:46:26.265625
135,35.82,2021-12-17 17:46:26.281250
136,-13.39,2021-12-17 17:46:26.296875
137,-57.47,2021-12-17 17:46:26.312500
138,-96.6,2021-12-17 17:46:26.328125
139,-130.53,2021-12-17 17:46:26.343750
140,-158.37,2021-12-17 17:46:26.359375
141,-179.19,2021-12-17 17:46:26.375000
142,-193.19,2021-12-17 17:46:26.390625
143,-202.95,2021-12-17 17:46:26.406250
144,-213.35,2021-12-17 17:46:26.421875
145,-230.14,2021-12-17 17:46:26.437500
146,-257.43,2021-12-17 17:46:26.453125
147,-295.8,2021-12-17 17:46:26.468750
148,-341.64,2021-12-17 17:46:26.484375
149,-388.64,2021-12-17 17:46:26.500000
150,-430.35,2021-12-17 17:46:26.515625
151,-462.54,2021-12-17 17:46:26.531250
152,-484.24,2021-12-17 17:46:26.546875
153,-497.09,2021-12-17 17:46:26.562500
154,-503.9,2021-12-17 17:46:26.578125
155,-506.91,2021-12-17 17:46:26.593750
156,-507.34,2021-12-17 17:46:26.609375
157,-505.7,2021-12-17 17:46:26.625000
158,-502.54,2021-12-17 17:46:26.640625
159,-498.86,2021-12-17 17:46:26.656250
160,-495.7,2021-12-17 17:46:26.671875
161,-493.32,2021-12-17 17:46:26.687500
162,-490.17,2021-12-17 17:46:26.703125
163,-483.45,2021-12-17 17:46:26.718750
164,-470.33,2021-12-17 17:46:26.734375
165,-449.7,2021-12-17 17:46:26.750000
166,-423.2,2021-12-17 17:46:26.765625
167,-394.33,2021-12-17 17:46:26.781250
168,-366.29,2021-12-17 17:46:26.796875
169,-339.43,2021-12-17 17:46:26.812500
170,-310.66,2021-12-17 17:46:26.828125
171,-274.75,2021-12-17 17:46:26.843750
172,-227.62,2021-12-17 17:46:26.859375
173,-169.37,2021-12-17 17:46:26.875000
174,-105.37,2021-12-17 17:46:26.890625
175,-44.79,2021-12-17 17:46:26.906250
176,2.51,2021-12-17 17:46:26.921875
177,29.03,2021-12-17 17:46:26.937500
178,31.78,2021-12-17 17:46:26.953125
179,12.36,2021-12-17 17:46:26.968750
180,-23.17,2021-12-17 17:46:26.984375
181,-65.1,2021-12-17 17:46:27.000000
182,-101.25,2021-12-17 17:46:27.015625
183,-119.66,2021-12-17 17:46:27.031250
184,-112.24,2021-12-17 17:46:27.046875
185,-78.04,2021-12-17 17:46:27.062500
186,-24.27,2021-12-17 17:46:27.078125
187,36.65,2021-12-17 17:46:27.093750
188,92.32,2021-12-17 17:46:27.109375
189,135.73,2021-12-17 17:46:27.125000
190,167.11,2021-12-17 17:46:27.140625
191,192.44,2021-12-17 17:46:27.156250
192,218.87,2021-12-17 17:46:27.171875
193,250.36,2021-12-17 17:46:27.187500
194,285.98,2021-12-17 17:46:27.203125
195,320.57,2021-12-17 17:46:27.218750
196,346.99,2021-12-17 17:46:27.234375
197,358.24,2021-12-17 17:46:27.250000
198,348.92,2021-12-17 17:46:27.265625
199,316.45,2021-12-17 17:46:27.281250
200,262.84,2021-12-17 17:46:27.296875
201,195.88,2021-12-17 17:46:27.312500
202,128.43,2021-12-17 17:46:27.328125
203,75.07,2021-12-17 17:46:27.343750
204,46.8,2021-12-17 17:46:27.359375
205,46.54,2021-12-17 17:46:27.375000
206,68.19,2021-12-17 17:46:27.390625
207,100.18,2021-12-17 17:46:27.406250
208,130.84,2021-12-17 17:46:27.421875
209,153.17,2021-12-17 17:46:27.437500
210,166.11,2021-12-17 17:46:27.453125
211,172.26,2021-12-17 17:46:27.468750
212,174.07,2021-12-17 17:46:27.484375
213,171.43,2021-12-17 17:46:27.500000
214,161.88,2021-12-17 17:46:27.515625
215,143.03,2021-12-17 17:46:27.531250
216,115.29,2021-12-17 17:46:27.546875
217,82.64,2021-12-17 17:46:27.562500
218,50.98,2021-12-17 17:46:27.578125
219,24.85,2021-12-17 17:46:27.593750
220,5.05,2021-12-17 17:46:27.609375
221,-11.71,2021-12-17 17:46:27.625000
222,-30.72,2021-12-17 17:46:27.640625
223,-55.96,2021-12-17 17:46:27.656250
224,-87.59,2021-12-17 17:46:27.671875
225,-121.54,2021-12-17 17:46:27.687500
226,-151.63,2021-12-17 17:46:27.703125
227,-172.59,2021-12-17 17:46:27.718750
228,-182.23,2021-12-17 17:46:27.734375
229,-181.64,2021-12-17 17:46:27.750000
230,-173.45,2021-12-17 17:46:27.765625
231,-159.63,2021-12-17 17:46:27.781250
232,-140.43,2021-12-17 17:46:27.796875
233,-115.06,2021-12-17 17:46:27.812500
234,-83.41,2021-12-17 17:46:27.828125
235,-47.53,2021-12-17 17:46:27.843750
236,-11.76,2021-12-17 17:46:27.859375
237,18.96,2021-12-17 17:46:27.875000
238,41.17,2021-12-17 17:46:27.890625
239,54.57,2021-12-17 17:46:27.906250
240,61.83,2021-12-17 17:46:27.921875
241,66.81,2021-12-17 17:46:27.937500
242,72.16,2021-12-17 17:46:27.953125
243,78.02,2021-12-17 17:46:27.968750
244,82.47,2021-12-17 17:46:27.984375
245,83.38,2021-12-17 17:46:28.000000
246,80.4,2021-12-17 17:46:28.015625
247,75.32,2021-12-17 17:46:28.031250
248,71.17,2021-12-17 17:46:28.046875
249,70.13,2021-12-17 17:46:28.062500
250,72.47,2021-12-17 17:46:28.078125
251,76.4,2021-12-17 17:46:28.093750
252,79.65,2021-12-17 17:46:28.109375
253,81.15,2021-12-17 17:46:28.125000
254,81.96,2021-12-17 17:46:28.140625
255,84.68,2021-12-17 17:46:28.156250
256,91.69,2021-12-17 17:46:28.171875
257,103.84,2021-12-17 17:46:28.187500
258,119.94,2021-12-17 17:46:28.203125
259,137.77,2021-12-17 17:46:28.218750
260,155.26,2021-12-17 17:46:28.234375
261,171.29,2021-12-17 17:46:28.250000
262,185.55,2021-12-17 17:46:28.265625
263,198.05,2021-12-17 17:46:28.281250
264,208.67,2021-12-17 17:46:28.296875
265,217.19,2021-12-17 17:46:28.312500
266,223.49,2021-12-17 17:46:28.328125
267,227.68,2021-12-17 17:46:28.343750
268,229.84,2021-12-17 17:46:28.359375
269,229.82,2021-12-17 17:46:28.375000
270,227.26,2021-12-17 17:46:28.390625
271,221.93,2021-12-17 17:46:28.406250
272,214.2,2021-12-17 17:46:28.421875
273,205.4,2021-12-17 17:46:28.437500
274,197.42,2021-12-17 17:46:28.453125
275,191.98,2021-12-17 17:46:28.468750
276,189.84,2021-12-17 17:46:28.484375
277,190.29,2021-12-17 17:46:28.500000
278,191.4,2021-12-17 17:46:28.515625
279,190.67,2021-12-17 17:46:28.531250
280,186.0,2021-12-17 17:46:28.546875
281,176.26,2021-12-17 17:46:28.562500
282,161.43,2021-12-17 17:46:28.578125
283,142.24,2021-12-17 17:46:28.593750
284,119.4,2021-12-17 17:46:28.609375
285,93.17,2021-12-17 17:46:28.625000
286,63.04,2021-12-17 17:46:28.640625
287,28.11,2021-12-17 17:46:28.656250
288,-12.52,2021-12-17 17:46:28.671875
289,-59.09,2021-12-17 17:46:28.687500
290,-110.71,2021-12-17 17:46:28.703125
291,-165.47,2021-12-17 17:46:28.718750
292,-220.91,2021-12-17 17:46:28.734375
293,-274.58,2021-12-17 17:46:28.750000
294,-324.72,2021-12-17 17:46:28.765625
295,-370.59,2021-12-17 17:46:28.781250
296,-412.16,2021-12-17 17:46:28.796875
297,-449.98,2021-12-17 17:46:28.812500
298,-485.0,2021-12-17 17:46:28.828125
299,-518.07,2021-12-17 17:46:28.843750
300,-549.56,2021-12-17 17:46:28.859375
301,-578.26,2021-12-17 17:46:28.875000
302,-600.49,2021-12-17 17:46:28.890625
303,-610.19,2021-12-17 17:46:28.906250
304,-600.47,2021-12-17 17:46:28.921875
305,-566.16,2021-12-17 17:46:28.937500
306,-506.41,2021-12-17 17:46:28.953125
307,-425.84,2021-12-17 17:46:28.968750
308,-333.32,2021-12-17 17:46:28.984375
309,-239.1,2021-12-17 17:46:29.000000
310,-151.25,2021-12-17 17:46:29.015625
311,-73.93,2021-12-17 17:46:29.031250
312,-7.41,2021-12-17 17:46:29.046875
313,49.93,2021-12-17 17:46:29.062500
314,99.72,2021-12-17 17:46:29.078125
315,142.68,2021-12-17 17:46:29.093750
316,178.98,2021-12-17 17:46:29.109375
317,209.51,2021-12-17 17:46:29.125000
318,236.24,2021-12-17 17:46:29.140625
319,261.7,2021-12-17 17:46:29.156250
320,287.6,2021-12-17 17:46:29.171875
321,313.55,2021-12-17 17:46:29.187500
322,336.69,2021-12-17 17:46:29.203125
323,352.41,2021-12-17 17:46:29.218750
324,355.58,2021-12-17 17:46:29.234375
325,341.96,2021-12-17 17:46:29.250000
326,309.44,2021-12-17 17:46:29.265625
327,258.48,2021-12-17 17:46:29.281250
328,192.34,2021-12-17 17:46:29.296875
329,116.49,2021-12-17 17:46:29.312500
330,37.52,2021-12-17 17:46:29.328125
331,-38.3,2021-12-17 17:46:29.343750
332,-106.61,2021-12-17 17:46:29.359375
333,-165.74,2021-12-17 17:46:29.375000
334,-216.68,2021-12-17 17:46:29.390625
335,-262.11,2021-12-17 17:46:29.406250
336,-305.39,2021-12-17 17:46:29.421875
337,-349.1,2021-12-17 17:46:29.437500
338,-393.86,2021-12-17 17:46:29.453125
339,-437.48,2021-12-17 17:46:29.468750
340,-474.66,2021-12-17 17:46:29.484375
341,-498.17,2021-12-17 17:46:29.500000
342,-500.89,2021-12-17 17:46:29.515625
343,-478.69,2021-12-17 17:46:29.531250
344,-432.23,2021-12-17 17:46:29.546875
345,-367.16,2021-12-17 17:46:29.562500
346,-291.99,2021-12-17 17:46:29.578125
347,-214.65,2021-12-17 17:46:29.593750
348,-140.09,2021-12-17 17:46:29.609375
349,-69.24,2021-12-17 17:46:29.625000
350,-0.55,2021-12-17 17:46:29.640625
351,67.79,2021-12-17 17:46:29.656250
352,136.04,2021-12-17 17:46:29.671875
353,202.86,2021-12-17 17:46:29.687500
354,266.1,2021-12-17 17:46:29.703125
355,324.1,2021-12-17 17:46:29.718750
356,376.62,2021-12-17 17:46:29.734375
357,424.59,2021-12-17 17:46:29.750000
358,469.52,2021-12-17 17:46:29.765625
359,512.54,2021-12-17 17:46:29.781250
360,553.63,2021-12-17 17:46:29.796875
361,590.74,2021-12-17 17:46:29.812500
362,619.87,2021-12-17 17:46:29.828125
363,635.41,2021-12-17 17:46:29.843750
364,631.61,2021-12-17 17:46:29.859375
365,604.44,2021-12-17 17:46:29.875000
366,553.12,2021-12-17 17:46:29.890625
367,480.62,2021-12-17 17:46:29.906250
368,392.86,2021-12-17 17:46:29.921875
369,297.49,2021-12-17 17:46:29.937500
370,202.6,2021-12-17 17:46:29.953125
371,115.7,2021-12-17 17:46:29.968750
372,42.89,2021-12-17 17:46:29.984375
373,-12.11,2021-12-17 17:46:30.000000
374,-49.13,2021-12-17 17:46:30.015625
375,-72.2,2021-12-17 17:46:30.031250
376,-88.76,2021-12-17 17:46:30.046875
377,-107.52,2021-12-17 17:46:30.062500
378,-135.4,2021-12-17 17:46:30.078125
379,-175.19,2021-12-17 17:46:30.093750
380,-225.06,2021-12-17 17:46:30.109375
381,-280.01,2021-12-17 17:46:30.125000
382,-334.2,2021-12-17 17:46:30.140625
383,-382.66,2021-12-17 17:46:30.156250
384,-421.74,2021-12-17 17:46:30.171875
385,-448.25,2021-12-17 17:46:30.187500
386,-458.89,2021-12-17 17:46:30.203125
387,-450.7,2021-12-17 17:46:30.218750
388,-422.51,2021-12-17 17:46:30.234375
389,-376.33,2021-12-17 17:46:30.250000
390,-317.5,2021-12-17 17:46:30.265625
391,-253.47,2021-12-17 17:46:30.281250
392,-191.52,2021-12-17 17:46:30.296875
393,-136.75,2021-12-17 17:46:30.312500
394,-90.84,2021-12-17 17:46:30.328125
395,-52.48,2021-12-17 17:46:30.343750
396,-18.78,2021-12-17 17:46:30.359375
397,13.05,2021-12-17 17:46:30.375000
398,44.4,2021-12-17 17:46:30.390625
399,75.06,2021-12-17 17:46:30.406250
400,103.65,2021-12-17 17:46:30.421875
401,128.51,2021-12-17 17:46:30.437500
402,148.43,2021-12-17 17:46:30.453125
403,163.1,2021-12-17 17:46:30.468750
404,172.85,2021-12-17 17:46:30.484375
405,178.31,2021-12-17 17:46:30.500000
406,180.06,2021-12-17 17:46:30.515625
407,178.44,2021-12-17 17:46:30.531250
408,173.66,2021-12-17 17:46:30.546875
409,165.95,2021-12-17 17:46:30.562500
410,155.78,2021-12-17 17:46:30.578125
411,143.88,2021-12-17 17:46:30.593750
412,131.62,2021-12-17 17:46:30.609375
413,120.75,2021-12-17 17:46:30.625000
414,113.14,2021-12-17 17:46:30.640625
415,109.94,2021-12-17 17:46:30.656250
416,110.59,2021-12-17 17:46:30.671875
417,112.47,2021-12-17 17:46:30.687500
418,111.13,2021-12-17 17:46:30.703125
419,101.71,2021-12-17 17:46:30.718750
420,80.75,2021-12-17 17:46:30.734375
421,47.6,2021-12-17 17:46:30.750000
422,4.46,2021-12-17 17:46:30.765625
423,-44.32,2021-12-17 17:46:30.781250
424,-93.37,2021-12-17 17:46:30.796875
425,-137.27,2021-12-17 17:46:30.812500
426,-171.04,2021-12-17 17:46:30.828125
427,-190.65,2021-12-17 17:46:30.843750
428,-193.61,2021-12-17 17:46:30.859375
429,-179.59,2021-12-17 17:46:30.875000
430,-150.92,2021-12-17 17:46:30.890625
431,-112.34,2021-12-17 17:46:30.906250
432,-69.64,2021-12-17 17:46:30.921875
433,-27.74,2021-12-17 17:46:30.937500
434,11.11,2021-12-17 17:46:30.953125
435,48.01,2021-12-17 17:46:30.968750
436,86.54,2021-12-17 17:46:30.984375
437,130.6,2021-12-17 17:46:31.000000
438,182.15,2021-12-17 17:46:31.015625
439,239.22,2021-12-17 17:46:31.031250
440,295.85,2021-12-17 17:46:31.046875
441,343.49,2021-12-17 17:46:31.062500
442,373.48,2021-12-17 17:46:31.078125
443,379.77,2021-12-17 17:46:31.093750
444,360.74,2021-12-17 17:46:31.109375
445,319.29,2021-12-17 17:46:31.125000
446,261.35,2021-12-17 17:46:31.140625
447,193.6,2021-12-17 17:46:31.156250
448,121.22,2021-12-17 17:46:31.171875
449,46.9,2021-12-17 17:46:31.187500
450,-28.71,2021-12-17 17:46:31.203125
451,-106.02,2021-12-17 17:46:31.218750
452,-185.52,2021-12-17 17:46:31.234375
453,-266.89,2021-12-17 17:46:31.250000
454,-349.08,2021-12-17 17:46:31.265625
455,-430.28,2021-12-17 17:46:31.281250
456,-507.95,2021-12-17 17:46:31.296875
457,-578.96,2021-12-17 17:46:31.312500
458,-639.57,2021-12-17 17:46:31.328125
459,-685.86,2021-12-17 17:46:31.343750
460,-714.48,2021-12-17 17:46:31.359375
461,-723.65,2021-12-17 17:46:31.375000
462,-713.7,2021-12-17 17:46:31.390625
463,-686.38,2021-12-17 17:46:31.406250
464,-643.63,2021-12-17 17:46:31.421875
465,-586.24,2021-12-17 17:46:31.437500
466,-513.54,2021-12-17 17:46:31.453125
467,-424.5,2021-12-17 17:46:31.468750
468,-319.95,2021-12-17 17:46:31.484375
469,-204.48,2021-12-17 17:46:31.500000
470,-86.62,2021-12-17 17:46:31.515625
471,22.9,2021-12-17 17:46:31.531250
472,114.26,2021-12-17 17:46:31.546875
473,181.32,2021-12-17 17:46:31.562500
474,222.8,2021-12-17 17:46:31.578125
475,241.7,2021-12-17 17:46:31.593750
476,243.42,2021-12-17 17:46:31.609375
477,233.96,2021-12-17 17:46:31.625000
478,218.73,2021-12-17 17:46:31.640625
479,202.38,2021-12-17 17:46:31.656250
480,188.91,2021-12-17 17:46:31.671875
481,181.49,2021-12-17 17:46:31.687500
482,181.97,2021-12-17 17:46:31.703125
483,190.35,2021-12-17 17:46:31.718750
484,204.82,2021-12-17 17:46:31.734375
485,222.4,2021-12-17 17:46:31.750000
486,239.95,2021-12-17 17:46:31.765625
487,255.11,2021-12-17 17:46:31.781250
488,267.24,2021-12-17 17:46:31.796875
489,277.55,2021-12-17 17:46:31.812500
490,288.58,2021-12-17 17:46:31.828125
491,302.78,2021-12-17 17:46:31.843750
492,320.59,2021-12-17 17:46:31.859375
493,339.43,2021-12-17 17:46:31.875000
494,354.08,2021-12-17 17:46:31.890625
495,358.94,2021-12-17 17:46:31.906250
496,350.29,2021-12-17 17:46:31.921875
497,328.22,2021-12-17 17:46:31.937500
498,296.45,2021-12-17 17:46:31.953125
499,260.95,2021-12-17 17:46:31.968750
500,227.97,2021-12-17 17:46:31.984375
501,201.95,2021-12-17 17:46:32.000000
502,184.92,2021-12-17 17:46:32.015625
503,176.61,2021-12-17 17:46:32.031250
504,175.39,2021-12-17 17:46:32.046875
505,178.86,2021-12-17 17:46:32.062500
506,184.31,2021-12-17 17:46:32.078125
507,188.74,2021-12-17 17:46:32.093750
508,189.41,2021-12-17 17:46:32.109375
509,184.83,2021-12-17 17:46:32.125000
510,174.72,2021-12-17 17:46:32.140625
511,159.98,2021-12-17 17:46:32.156250
512,142.24,2021-12-17 17:46:32.171875
513,123.47,2021-12-17 17:46:32.187500
514,105.57,2021-12-17 17:46:32.203125
515,89.92,2021-12-17 17:46:32.218750
516,76.48,2021-12-17 17:46:32.234375
517,63.67,2021-12-17 17:46:32.250000
518,49.38,2021-12-17 17:46:32.265625
519,30.57,2021-12-17 17:46:32.281250
520,4.16,2021-12-17 17:46:32.296875
521,-30.67,2021-12-17 17:46:32.312500
522,-71.2,2021-12-17 17:46:32.328125
523,-111.1,2021-12-17 17:46:32.343750
524,-141.85,2021-12-17 17:46:32.359375
525,-156.25,2021-12-17 17:46:32.375000
526,-150.11,2021-12-17 17:46:32.390625
527,-121.55,2021-12-17 17:46:32.406250
528,-73.32,2021-12-17 17:46:32.421875
529,-12.67,2021-12-17 17:46:32.437500
530,52.04,2021-12-17 17:46:32.453125
531,113.36,2021-12-17 17:46:32.468750
532,166.05,2021-12-17 17:46:32.484375
533,207.48,2021-12-17 17:46:32.500000
534,235.64,2021-12-17 17:46:32.515625
535,249.65,2021-12-17 17:46:32.531250
536,252.88,2021-12-17 17:46:32.546875
537,248.89,2021-12-17 17:46:32.562500
538,239.45,2021-12-17 17:46:32.578125
539,225.86,2021-12-17 17:46:32.593750
540,208.35,2021-12-17 17:46:32.609375
541,185.69,2021-12-17 17:46:32.625000
542,155.12,2021-12-17 17:46:32.640625
543,111.14,2021-12-17 17:46:32.656250
544,48.5,2021-12-17 17:46:32.671875
545,-31.2,2021-12-17 17:46:32.687500
546,-123.04,2021-12-17 17:46:32.703125
547,-221.22,2021-12-17 17:46:32.718750
548,-318.02,2021-12-17 17:46:32.734375
549,-405.72,2021-12-17 17:46:32.750000
550,-478.01,2021-12-17 17:46:32.765625
551,-518.57,2021-12-17 17:46:32.781250
552,-514.39,2021-12-17 17:46:32.796875
553,-483.63,2021-12-17 17:46:32.812500
554,-441.46,2021-12-17 17:46:32.828125
555,-389.95,2021-12-17 17:46:32.843750
556,-334.64,2021-12-17 17:46:32.859375
557,-281.57,2021-12-17 17:46:32.875000
558,-236.48,2021-12-17 17:46:32.890625
559,-203.55,2021-12-17 17:46:32.906250
560,-184.66,2021-12-17 17:46:32.921875
561,-181.03,2021-12-17 17:46:32.937500
562,-191.7,2021-12-17 17:46:32.953125
563,-209.43,2021-12-17 17:46:32.968750
564,-226.6,2021-12-17 17:46:32.984375
565,-238.42,2021-12-17 17:46:33.000000
566,-241.62,2021-12-17 17:46:33.015625
567,-234.79,2021-12-17 17:46:33.031250
568,-217.88,2021-12-17 17:46:33.046875
569,-191.75,2021-12-17 17:46:33.062500
570,-158.96,2021-12-17 17:46:33.078125
571,-122.11,2021-12-17 17:46:33.093750
572,-80.42,2021-12-17 17:46:33.109375
573,-33.88,2021-12-17 17:46:33.125000
574,14.47,2021-12-17 17:46:33.140625
575,59.61,2021-12-17 17:46:33.156250
576,94.74,2021-12-17 17:46:33.171875
577,112.88,2021-12-17 17:46:33.187500
578,109.54,2021-12-17 17:46:33.203125
579,84.42,2021-12-17 17:46:33.218750
580,43.31,2021-12-17 17:46:33.234375
581,-1.5,2021-12-17 17:46:33.250000
582,-37.1,2021-12-17 17:46:33.265625
583,-55.21,2021-12-17 17:46:33.281250
584,-53.49,2021-12-17 17:46:33.296875
585,-35.15,2021-12-17 17:46:33.312500
586,-6.76,2021-12-17 17:46:33.328125
587,24.38,2021-12-17 17:46:33.343750
588,51.1,2021-12-17 17:46:33.359375
589,66.83,2021-12-17 17:46:33.375000
590,66.97,2021-12-17 17:46:33.390625
591,49.96,2021-12-17 17:46:33.406250
592,19.26,2021-12-17 17:46:33.421875
593,-15.33,2021-12-17 17:46:33.437500
594,-40.12,2021-12-17 17:46:33.453125
595,-43.43,2021-12-17 17:46:33.468750
596,-21.51,2021-12-17 17:46:33.484375
597,18.79,2021-12-17 17:46:33.500000
598,63.26,2021-12-17 17:46:33.515625
599,97.5,2021-12-17 17:46:33.531250
600,113.25,2021-12-17 17:46:33.546875
601,110.77,2021-12-17 17:46:33.562500
602,95.81,2021-12-17 17:46:33.578125
603,74.41,2021-12-17 17:46:33.593750
604,49.26,2021-12-17 17:46:33.609375
605,20.2,2021-12-17 17:46:33.625000
606,-12.03,2021-12-17 17:46:33.640625
607,-42.25,2021-12-17 17:46:33.656250
608,-61.16,2021-12-17 17:46:33.671875
609,-59.29,2021-12-17 17:46:33.687500
610,-32.21,2021-12-17 17:46:33.703125
611,15.79,2021-12-17 17:46:33.718750
612,72.94,2021-12-17 17:46:33.734375
613,124.8,2021-12-17 17:46:33.750000
614,160.22,2021-12-17 17:46:33.765625
615,175.25,2021-12-17 17:46:33.781250
616,173.08,2021-12-17 17:46:33.796875
617,160.76,2021-12-17 17:46:33.812500
618,144.93,2021-12-17 17:46:33.828125
619,129.4,2021-12-17 17:46:33.843750
620,114.39,2021-12-17 17:46:33.859375
621,98.05,2021-12-17 17:46:33.875000
622,77.7,2021-12-17 17:46:33.890625
623,50.44,2021-12-17 17:46:33.906250
624,13.33,2021-12-17 17:46:33.921875
625,-36.44,2021-12-17 17:46:33.937500
626,-101.05,2021-12-17 17:46:33.953125
627,-180.79,2021-12-17 17:46:33.968750
628,-267.07,2021-12-17 17:46:33.984375
629,-345.03,2021-12-17 17:46:34.000000
630,-396.59,2021-12-17 17:46:34.015625
631,-408.43,2021-12-17 17:46:34.031250
632,-379.01,2021-12-17 17:46:34.046875
633,-318.73,2021-12-17 17:46:34.062500
634,-243.26,2021-12-17 17:46:34.078125
635,-166.58,2021-12-17 17:46:34.093750
636,-97.33,2021-12-17 17:46:34.109375
637,-38.37,2021-12-17 17:46:34.125000
638,9.8,2021-12-17 17:46:34.140625
639,47.03,2021-12-17 17:46:34.156250
640,72.7,2021-12-17 17:46:34.171875
641,86.6,2021-12-17 17:46:34.187500
642,90.26,2021-12-17 17:46:34.203125
643,87.76,2021-12-17 17:46:34.218750
644,84.41,2021-12-17 17:46:34.234375
645,85.48,2021-12-17 17:46:34.250000
646,94.79,2021-12-17 17:46:34.265625
647,113.04,2021-12-17 17:46:34.281250
648,137.58,2021-12-17 17:46:34.296875
649,163.7,2021-12-17 17:46:34.312500
650,187.71,2021-12-17 17:46:34.328125
651,205.18,2021-12-17 17:46:34.343750
652,213.15,2021-12-17 17:46:34.359375
653,210.06,2021-12-17 17:46:34.375000
654,195.23,2021-12-17 17:46:34.390625
655,168.58,2021-12-17 17:46:34.406250
656,130.39,2021-12-17 17:46:34.421875
657,81.85,2021-12-17 17:46:34.437500
658,26.17,2021-12-17 17:46:34.453125
659,-31.14,2021-12-17 17:46:34.468750
660,-83.28,2021-12-17 17:46:34.484375
661,-123.35,2021-12-17 17:46:34.500000
662,-146.56,2021-12-17 17:46:34.515625
663,-151.43,2021-12-17 17:46:34.531250
664,-139.33,2021-12-17 17:46:34.546875
665,-114.1,2021-12-17 17:46:34.562500
666,-80.73,2021-12-17 17:46:34.578125
667,-44.29,2021-12-17 17:46:34.593750
668,-9.42,2021-12-17 17:46:34.609375
669,20.1,2021-12-17 17:46:34.625000
670,42.17,2021-12-17 17:46:34.640625
671,56.43,2021-12-17 17:46:34.656250
672,61.05,2021-12-17 17:46:34.671875
673,56.64,2021-12-17 17:46:34.687500
674,45.28,2021-12-17 17:46:34.703125
675,29.83,2021-12-17 17:46:34.718750
676,12.92,2021-12-17 17:46:34.734375
677,-3.59,2021-12-17 17:46:34.750000
678,-18.94,2021-12-17 17:46:34.765625
679,-32.73,2021-12-17 17:46:34.781250
680,-45.37,2021-12-17 17:46:34.796875
681,-57.56,2021-12-17 17:46:34.812500
682,-69.88,2021-12-17 17:46:34.828125
683,-82.57,2021-12-17 17:46:34.843750
684,-95.26,2021-12-17 17:46:34.859375
685,-107.03,2021-12-17 17:46:34.875000
686,-116.2,2021-12-17 17:46:34.890625
687,-120.83,2021-12-17 17:46:34.906250
688,-118.39,2021-12-17 17:46:34.921875
689,-106.57,2021-12-17 17:46:34.937500
690,-83.82,2021-12-17 17:46:34.953125
691,-49.89,2021-12-17 17:46:34.968750
692,-6.86,2021-12-17 17:46:34.984375
693,40.96,2021-12-17 17:46:35.000000
694,88.23,2021-12-17 17:46:35.015625
695,130.2,2021-12-17 17:46:35.031250
696,164.12,2021-12-17 17:46:35.046875
697,190.01,2021-12-17 17:46:35.062500
698,209.95,2021-12-17 17:46:35.078125
699,226.68,2021-12-17 17:46:35.093750
700,242.36,2021-12-17 17:46:35.109375
701,257.17,2021-12-17 17:46:35.125000
702,269.01,2021-12-17 17:46:35.140625
703,274.38,2021-12-17 17:46:35.156250
704,269.7,2021-12-17 17:46:35.171875
705,252.65,2021-12-17 17:46:35.187500
706,223.14,2021-12-17 17:46:35.203125
707,183.13,2021-12-17 17:46:35.218750
708,136.04,2021-12-17 17:46:35.234375
709,85.85,2021-12-17 17:46:35.250000
710,36.17,2021-12-17 17:46:35.265625
711,-9.95,2021-12-17 17:46:35.281250
712,-49.99,2021-12-17 17:46:35.296875
713,-82.09,2021-12-17 17:46:35.312500
714,-105.56,2021-12-17 17:46:35.328125
715,-121.19,2021-12-17 17:46:35.343750
716,-130.96,2021-12-17 17:46:35.359375
717,-136.93,2021-12-17 17:46:35.375000
718,-139.65,2021-12-17 17:46:35.390625
719,-137.52,2021-12-17 17:46:35.406250
720,-127.45,2021-12-17 17:46:35.421875
721,-106.85,2021-12-17 17:46:35.437500
722,-75.46,2021-12-17 17:46:35.453125
723,-36.02,2021-12-17 17:46:35.468750
724,6.66,2021-12-17 17:46:35.484375
725,47.36,2021-12-17 17:46:35.500000
726,82.09,2021-12-17 17:46:35.515625
727,108.33,2021-12-17 17:46:35.531250
728,124.77,2021-12-17 17:46:35.546875
729,130.82,2021-12-17 17:46:35.562500
730,126.69,2021-12-17 17:46:35.578125
731,113.67,2021-12-17 17:46:35.593750
732,94.14,2021-12-17 17:46:35.609375
733,71.06,2021-12-17 17:46:35.625000
734,47.01,2021-12-17 17:46:35.640625
735,23.64,2021-12-17 17:46:35.656250
736,2.05,2021-12-17 17:46:35.671875
737,-16.58,2021-12-17 17:46:35.687500
738,-30.53,2021-12-17 17:46:35.703125
739,-38.01,2021-12-17 17:46:35.718750
740,-38.1,2021-12-17 17:46:35.734375
741,-31.64,2021-12-17 17:46:35.750000
742,-21.02,2021-12-17 17:46:35.765625
743,-8.91,2021-12-17 17:46:35.781250
744,3.16,2021-12-17 17:46:35.796875
745,15.48,2021-12-17 17:46:35.812500
746,29.39,2021-12-17 17:46:35.828125
747,45.8,2021-12-17 17:46:35.843750
748,64.11,2021-12-17 17:46:35.859375
749,82.18,2021-12-17 17:46:35.875000
750,97.48,2021-12-17 17:46:35.890625
751,108.4,2021-12-17 17:46:35.906250
752,114.79,2021-12-17 17:46:35.921875
753,117.5,2021-12-17 17:46:35.937500
754,117.14,2021-12-17 17:46:35.953125
755,113.5,2021-12-17 17:46:35.968750
756,105.67,2021-12-17 17:46:35.984375
757,92.93,2021-12-17 17:46:36.000000
758,75.55,2021-12-17 17:46:36.015625
759,54.81,2021-12-17 17:46:36.031250
760,32.54,2021-12-17 17:46:36.046875
761,10.26,2021-12-17 17:46:36.062500
762,-11.11,2021-12-17 17:46:36.078125
763,-31.23,2021-12-17 17:46:36.093750
764,-49.97,2021-12-17 17:46:36.109375
765,-67.4,2021-12-17 17:46:36.125000
766,-83.73,2021-12-17 17:46:36.140625
767,-99.09,2021-12-17 17:46:36.156250
768,-113.24,2021-12-17 17:46:36.171875
769,-125.35,2021-12-17 17:46:36.187500
770,-134.41,2021-12-17 17:46:36.203125
771,-140.2,2021-12-17 17:46:36.218750
772,-144.04,2021-12-17 17:46:36.234375
773,-148.54,2021-12-17 17:46:36.250000
774,-156.42,2021-12-17 17:46:36.265625
775,-168.75,2021-12-17 17:46:36.281250
776,-183.72,2021-12-17 17:46:36.296875
777,-197.06,2021-12-17 17:46:36.312500
778,-203.55,2021-12-17 17:46:36.328125
779,-199.22,2021-12-17 17:46:36.343750
780,-182.59,2021-12-17 17:46:36.359375
781,-154.66,2021-12-17 17:46:36.375000
782,-117.83,2021-12-17 17:46:36.390625
783,-74.83,2021-12-17 17:46:36.406250
784,-28.46,2021-12-17 17:46:36.421875
785,18.42,2021-12-17 17:46:36.437500
786,62.53,2021-12-17 17:46:36.453125
787,100.61,2021-12-17 17:46:36.468750
788,130.07,2021-12-17 17:46:36.484375
789,149.77,2021-12-17 17:46:36.500000
790,160.1,2021-12-17 17:46:36.515625
791,162.44,2021-12-17 17:46:36.531250
792,158.53,2021-12-17 17:46:36.546875
793,149.81,2021-12-17 17:46:36.562500
794,137.36,2021-12-17 17:46:36.578125
795,122.1,2021-12-17 17:46:36.593750
796,104.81,2021-12-17 17:46:36.609375
797,85.99,2021-12-17 17:46:36.625000
798,65.56,2021-12-17 17:46:36.640625
799,42.83,2021-12-17 17:46:36.656250
800,16.85,2021-12-17 17:46:36.671875
801,-12.51,2021-12-17 17:46:36.687500
802,-43.99,2021-12-17 17:46:36.703125
803,-74.99,2021-12-17 17:46:36.718750
804,-102.44,2021-12-17 17:46:36.734375
805,-124.08,2021-12-17 17:46:36.750000
806,-139.22,2021-12-17 17:46:36.765625
807,-148.68,2021-12-17 17:46:36.781250
808,-153.93,2021-12-17 17:46:36.796875
809,-156.33,2021-12-17 17:46:36.812500
810,-156.5,2021-12-17 17:46:36.828125
811,-154.32,2021-12-17 17:46:36.843750
812,-149.53,2021-12-17 17:46:36.859375
813,-142.15,2021-12-17 17:46:36.875000
814,-132.73,2021-12-17 17:46:36.890625
815,-122.1,2021-12-17 17:46:36.906250
816,-111.02,2021-12-17 17:46:36.921875
817,-99.79,2021-12-17 17:46:36.937500
818,-88.37,2021-12-17 17:46:36.953125
819,-76.6,2021-12-17 17:46:36.968750
820,-64.58,2021-12-17 17:46:36.984375
821,-52.97,2021-12-17 17:46:37.000000
822,-42.94,2021-12-17 17:46:37.015625
823,-35.85,2021-12-17 17:46:37.031250
824,-32.89,2021-12-17 17:46:37.046875
825,-34.53,2021-12-17 17:46:37.062500
826,-40.34,2021-12-17 17:46:37.078125
827,-49.01,2021-12-17 17:46:37.093750
828,-58.49,2021-12-17 17:46:37.109375
829,-66.67,2021-12-17 17:46:37.125000
830,-71.88,2021-12-17 17:46:37.140625
831,-73.26,2021-12-17 17:46:37.156250
832,-70.83,2021-12-17 17:46:37.171875
833,-65.53,2021-12-17 17:46:37.187500
834,-58.62,2021-12-17 17:46:37.203125
835,-51.38,2021-12-17 17:46:37.218750
836,-44.76,2021-12-17 17:46:37.234375
837,-39.02,2021-12-17 17:46:37.250000
838,-33.76,2021-12-17 17:46:37.265625
839,-28.03,2021-12-17 17:46:37.281250
840,-20.58,2021-12-17 17:46:37.296875
841,-10.19,2021-12-17 17:46:37.312500
842,3.88,2021-12-17 17:46:37.328125
843,21.9,2021-12-17 17:46:37.343750
844,43.97,2021-12-17 17:46:37.359375
845,70.24,2021-12-17 17:46:37.375000
846,101.06,2021-12-17 17:46:37.390625
847,136.72,2021-12-17 17:46:37.406250
848,176.84,2021-12-17 17:46:37.421875
849,219.92,2021-12-17 17:46:37.437500
850,263.09,2021-12-17 17:46:37.453125
851,302.48,2021-12-17 17:46:37.468750
852,333.99,2021-12-17 17:46:37.484375
853,354.45,2021-12-17 17:46:37.500000
854,362.48,2021-12-17 17:46:37.515625
855,358.71,2021-12-17 17:46:37.531250
856,345.22,2021-12-17 17:46:37.546875
857,324.63,2021-12-17 17:46:37.562500
858,299.51,2021-12-17 17:46:37.578125
859,272.09,2021-12-17 17:46:37.593750
860,244.47,2021-12-17 17:46:37.609375
861,218.52,2021-12-17 17:46:37.625000
862,195.73,2021-12-17 17:46:37.640625
863,176.84,2021-12-17 17:46:37.656250
864,161.86,2021-12-17 17:46:37.671875
865,149.95,2021-12-17 17:46:37.687500
866,140.05,2021-12-17 17:46:37.703125
867,131.86,2021-12-17 17:46:37.718750
868,126.16,2021-12-17 17:46:37.734375
869,124.88,2021-12-17 17:46:37.750000
870,129.77,2021-12-17 17:46:37.765625
871,141.4,2021-12-17 17:46:37.781250
872,158.5,2021-12-17 17:46:37.796875
873,178.07,2021-12-17 17:46:37.812500
874,195.69,2021-12-17 17:46:37.828125
875,206.74,2021-12-17 17:46:37.843750
876,208.06,2021-12-17 17:46:37.859375
877,198.92,2021-12-17 17:46:37.875000
878,181.8,2021-12-17 17:46:37.890625
879,160.04,2021-12-17 17:46:37.906250
880,136.77,2021-12-17 17:46:37.921875
881,113.71,2021-12-17 17:46:37.937500
882,90.68,2021-12-17 17:46:37.953125
883,65.14,2021-12-17 17:46:37.968750
884,33.88,2021-12-17 17:46:37.984375
885,-5.27,2021-12-17 17:46:38.000000
886,-52.03,2021-12-17 17:46:38.015625
887,-102.15,2021-12-17 17:46:38.031250
888,-151.79,2021-12-17 17:46:38.046875
889,-198.0,2021-12-17 17:46:38.062500
890,-239.01,2021-12-17 17:46:38.078125
891,-274.41,2021-12-17 17:46:38.093750
892,-305.93,2021-12-17 17:46:38.109375
893,-336.07,2021-12-17 17:46:38.125000
894,-366.52,2021-12-17 17:46:38.140625
895,-396.5,2021-12-17 17:46:38.156250
896,-419.38,2021-12-17 17:46:38.171875
897,-428.85,2021-12-17 17:46:38.187500
898,-420.43,2021-12-17 17:46:38.203125
899,-393.06,2021-12-17 17:46:38.218750
900,-351.63,2021-12-17 17:46:38.234375
901,-308.56,2021-12-17 17:46:38.250000
902,-280.4,2021-12-17 17:46:38.265625
903,-282.64,2021-12-17 17:46:38.281250
904,-323.79,2021-12-17 17:46:38.296875
905,-398.62,2021-12-17 17:46:38.312500
906,-495.65,2021-12-17 17:46:38.328125
907,-600.21,2021-12-17 17:46:38.343750
908,-697.62,2021-12-17 17:46:38.359375
909,-763.09,2021-12-17 17:46:38.375000
910,-776.29,2021-12-17 17:46:38.390625
911,-726.89,2021-12-17 17:46:38.406250
912,-620.11,2021-12-17 17:46:38.421875
913,-495.33,2021-12-17 17:46:38.437500
914,-372.73,2021-12-17 17:46:38.453125
915,-261.12,2021-12-17 17:46:38.468750
916,-163.07,2021-12-17 17:46:38.484375
917,-74.15,2021-12-17 17:46:38.500000
918,7.05,2021-12-17 17:46:38.515625
919,80.87,2021-12-17 17:46:38.531250
920,147.8,2021-12-17 17:46:38.546875
921,207.65,2021-12-17 17:46:38.562500
922,258.58,2021-12-17 17:46:38.578125
923,299.79,2021-12-17 17:46:38.593750
924,326.09,2021-12-17 17:46:38.609375
925,332.41,2021-12-17 17:46:38.625000
926,319.0,2021-12-17 17:46:38.640625
927,292.34,2021-12-17 17:46:38.656250
928,262.01,2021-12-17 17:46:38.671875
929,235.73,2021-12-17 17:46:38.687500
930,214.94,2021-12-17 17:46:38.703125
931,195.28,2021-12-17 17:46:38.718750
932,173.04,2021-12-17 17:46:38.734375
933,145.13,2021-12-17 17:46:38.750000
934,113.01,2021-12-17 17:46:38.765625
935,82.87,2021-12-17 17:46:38.781250
936,61.33,2021-12-17 17:46:38.796875
937,51.22,2021-12-17 17:46:38.812500
938,50.25,2021-12-17 17:46:38.828125
939,52.66,2021-12-17 17:46:38.843750
940,53.83,2021-12-17 17:46:38.859375
941,54.64,2021-12-17 17:46:38.875000
942,58.26,2021-12-17 17:46:38.890625
943,68.36,2021-12-17 17:46:38.906250
944,87.31,2021-12-17 17:46:38.921875
945,114.85,2021-12-17 17:46:38.937500
946,148.85,2021-12-17 17:46:38.953125
947,186.73,2021-12-17 17:46:38.968750
948,226.51,2021-12-17 17:46:38.984375
949,267.09,2021-12-17 17:46:39.000000
950,308.44,2021-12-17 17:46:39.015625
951,349.7,2021-12-17 17:46:39.031250
952,389.23,2021-12-17 17:46:39.046875
953,425.41,2021-12-17 17:46:39.062500
954,456.85,2021-12-17 17:46:39.078125
955,482.66,2021-12-17 17:46:39.093750
956,501.99,2021-12-17 17:46:39.109375
957,513.89,2021-12-17 17:46:39.125000
958,517.65,2021-12-17 17:46:39.140625
959,513.24,2021-12-17 17:46:39.156250
960,500.81,2021-12-17 17:46:39.171875
961,480.59,2021-12-17 17:46:39.187500
962,452.49,2021-12-17 17:46:39.203125
963,415.89,2021-12-17 17:46:39.218750
964,369.97,2021-12-17 17:46:39.234375
965,314.11,2021-12-17 17:46:39.250000
966,249.08,2021-12-17 17:46:39.265625
967,177.98,2021-12-17 17:46:39.281250
968,106.35,2021-12-17 17:46:39.296875
969,41.2,2021-12-17 17:46:39.312500
970,-11.02,2021-12-17 17:46:39.328125
971,-46.41,2021-12-17 17:46:39.343750
972,-64.59,2021-12-17 17:46:39.359375
973,-68.23,2021-12-17 17:46:39.375000
974,-61.87,2021-12-17 17:46:39.390625
975,-50.11,2021-12-17 17:46:39.406250
976,-36.6,2021-12-17 17:46:39.421875
977,-23.68,2021-12-17 17:46:39.437500
978,-12.57,2021-12-17 17:46:39.453125
979,-3.9,2021-12-17 17:46:39.468750
980,1.99,2021-12-17 17:46:39.484375
981,4.95,2021-12-17 17:46:39.500000
982,4.8,2021-12-17 17:46:39.515625
983,1.08,2021-12-17 17:46:39.531250
984,-6.87,2021-12-17 17:46:39.546875
985,-19.82,2021-12-17 17:46:39.562500
986,-38.22,2021-12-17 17:46:39.578125
987,-61.69,2021-12-17 17:46:39.593750
988,-89.85,2021-12-17 17:46:39.609375
989,-122.69,2021-12-17 17:46:39.625000
990,-160.97,2021-12-17 17:46:39.640625
991,-205.43,2021-12-17 17:46:39.656250
992,-256.1,2021-12-17 17:46:39.671875
993,-310.76,2021-12-17 17:46:39.687500
994,-364.88,2021-12-17 17:46:39.703125
995,-412.78,2021-12-17 17:46:39.718750
996,-448.82,2021-12-17 17:46:39.734375
997,-470.82,2021-12-17 17:46:39.750000
998,-479.69,2021-12-17 17:46:39.765625
999,-478.24,2021-12-17 17:46:39.781250
1000,-469.43,2021-12-17 17:46:39.796875
1001,-456.23,2021-12-17 17:46:39.812500
1002,-440.92,2021-12-17 17:46:39.828125
1003,-424.81,2021-12-17 17:46:39.843750
1004,-407.89,2021-12-17 17:46:39.859375
1005,-386.38,2021-12-17 17:46:39.875000
1006,-356.24,2021-12-17 17:46:39.890625
1007,-313.77,2021-12-17 17:46:39.906250
1008,-257.58,2021-12-17 17:46:39.921875
1009,-190.75,2021-12-17 17:46:39.937500
1010,-122.17,2021-12-17 17:46:39.953125
1011,-63.28,2021-12-17 17:46:39.968750
1012,-23.59,2021-12-17 17:46:39.984375
1013,-7.09,2021-12-17 17:46:40.000000
1014,-8.45,2021-12-17 17:46:40.015625
1015,-20.49,2021-12-17 17:46:40.031250
1016,-36.39,2021-12-17 17:46:40.046875
1017,-51.49,2021-12-17 17:46:40.062500
1018,-64.22,2021-12-17 17:46:40.078125
1019,-76.51,2021-12-17 17:46:40.093750
1020,-91.93,2021-12-17 17:46:40.109375
1021,-114.21,2021-12-17 17:46:40.125000
1022,-147.04,2021-12-17 17:46:40.140625
1023,-189.32,2021-12-17 17:46:40.156250
1024,-241.19,2021-12-17 17:46:40.171875
1025,-301.68,2021-12-17 17:46:40.187500
1026,-367.33,2021-12-17 17:46:40.203125
1027,-418.97,2021-12-17 17:46:40.218750
1028,-436.25,2021-12-17 17:46:40.234375
1029,-405.28,2021-12-17 17:46:40.250000
1030,-325.76,2021-12-17 17:46:40.265625
1031,-231.55,2021-12-17 17:46:40.281250
1032,-137.33,2021-12-17 17:46:40.296875
1033,-47.79,2021-12-17 17:46:40.312500
1034,37.74,2021-12-17 17:46:40.328125
1035,124.8,2021-12-17 17:46:40.343750
1036,211.94,2021-12-17 17:46:40.359375
1037,293.12,2021-12-17 17:46:40.375000
1038,360.41,2021-12-17 17:46:40.390625
1039,408.55,2021-12-17 17:46:40.406250
1040,434.91,2021-12-17 17:46:40.421875
1041,446.03,2021-12-17 17:46:40.437500
1042,449.6,2021-12-17 17:46:40.453125
1043,453.84,2021-12-17 17:46:40.468750
1044,464.3,2021-12-17 17:46:40.484375
1045,475.21,2021-12-17 17:46:40.500000
1046,475.81,2021-12-17 17:46:40.515625
1047,453.5,2021-12-17 17:46:40.531250
1048,408.73,2021-12-17 17:46:40.546875
1049,342.23,2021-12-17 17:46:40.562500
1050,262.11,2021-12-17 17:46:40.578125
1051,175.09,2021-12-17 17:46:40.593750
1052,90.43,2021-12-17 17:46:40.609375
1053,15.97,2021-12-17 17:46:40.625000
1054,-45.87,2021-12-17 17:46:40.640625
1055,-97.33,2021-12-17 17:46:40.656250
1056,-144.29,2021-12-17 17:46:40.671875
1057,-191.38,2021-12-17 17:46:40.687500
1058,-244.24,2021-12-17 17:46:40.703125
1059,-303.84,2021-12-17 17:46:40.718750
1060,-368.96,2021-12-17 17:46:40.734375
1061,-433.52,2021-12-17 17:46:40.750000
1062,-480.94,2021-12-17 17:46:40.765625
1063,-494.73,2021-12-17 17:46:40.781250
1064,-463.46,2021-12-17 17:46:40.796875
1065,-401.0,2021-12-17 17:46:40.812500
1066,-319.99,2021-12-17 17:46:40.828125
1067,-232.69,2021-12-17 17:46:40.843750
1068,-143.3,2021-12-17 17:46:40.859375
1069,-57.68,2021-12-17 17:46:40.875000
1070,20.93,2021-12-17 17:46:40.890625
1071,91.91,2021-12-17 17:46:40.906250
1072,155.27,2021-12-17 17:46:40.921875
1073,211.65,2021-12-17 17:46:40.937500
1074,260.62,2021-12-17 17:46:40.953125
1075,302.76,2021-12-17 17:46:40.968750
1076,335.88,2021-12-17 17:46:40.984375
1077,357.67,2021-12-17 17:46:41.000000
1078,366.57,2021-12-17 17:46:41.015625
1079,364.35,2021-12-17 17:46:41.031250
1080,355.17,2021-12-17 17:46:41.046875
1081,343.04,2021-12-17 17:46:41.062500
1082,331.04,2021-12-17 17:46:41.078125
1083,320.94,2021-12-17 17:46:41.093750
1084,315.1,2021-12-17 17:46:41.109375
1085,313.7,2021-12-17 17:46:41.125000
1086,314.9,2021-12-17 17:46:41.140625
1087,314.27,2021-12-17 17:46:41.156250
1088,306.73,2021-12-17 17:46:41.171875
1089,288.05,2021-12-17 17:46:41.187500
1090,256.56,2021-12-17 17:46:41.203125
1091,214.61,2021-12-17 17:46:41.218750
1092,167.73,2021-12-17 17:46:41.234375
1093,123.24,2021-12-17 17:46:41.250000
1094,85.64,2021-12-17 17:46:41.265625
1095,55.73,2021-12-17 17:46:41.281250
1096,31.41,2021-12-17 17:46:41.296875
1097,10.51,2021-12-17 17:46:41.312500
1098,-8.18,2021-12-17 17:46:41.328125
1099,-25.1,2021-12-17 17:46:41.343750
1100,-41.03,2021-12-17 17:46:41.359375
1101,-57.53,2021-12-17 17:46:41.375000
1102,-75.8,2021-12-17 17:46:41.390625
1103,-96.1,2021-12-17 17:46:41.406250
1104,-116.73,2021-12-17 17:46:41.421875
1105,-134.73,2021-12-17 17:46:41.437500
1106,-147.29,2021-12-17 17:46:41.453125
1107,-153.87,2021-12-17 17:46:41.468750
1108,-156.69,2021-12-17 17:46:41.484375
1109,-159.31,2021-12-17 17:46:41.500000
1110,-164.35,2021-12-17 17:46:41.515625
1111,-171.66,2021-12-17 17:46:41.531250
1112,-178.64,2021-12-17 17:46:41.546875
1113,-181.88,2021-12-17 17:46:41.562500
1114,-178.86,2021-12-17 17:46:41.578125
1115,-168.88,2021-12-17 17:46:41.593750
1116,-153.03,2021-12-17 17:46:41.609375
1117,-133.16,2021-12-17 17:46:41.625000
1118,-111.13,2021-12-17 17:46:41.640625
1119,-88.41,2021-12-17 17:46:41.656250
1120,-66.41,2021-12-17 17:46:41.671875
1121,-46.79,2021-12-17 17:46:41.687500
1122,-31.45,2021-12-17 17:46:41.703125
1123,-21.84,2021-12-17 17:46:41.718750
1124,-18.07,2021-12-17 17:46:41.734375
1125,-18.67,2021-12-17 17:46:41.750000
1126,-21.03,2021-12-17 17:46:41.765625
1127,-22.44,2021-12-17 17:46:41.781250
1128,-21.21,2021-12-17 17:46:41.796875
1129,-17.0,2021-12-17 17:46:41.812500
1130,-10.35,2021-12-17 17:46:41.828125
1131,-1.93,2021-12-17 17:46:41.843750
1132,8.03,2021-12-17 17:46:41.859375
1133,19.72,2021-12-17 17:46:41.875000
1134,33.25,2021-12-17 17:46:41.890625
1135,48.07,2021-12-17 17:46:41.906250
1136,63.03,2021-12-17 17:46:41.921875
1137,76.46,2021-12-17 17:46:41.937500
1138,86.85,2021-12-17 17:46:41.953125
1139,93.26,2021-12-17 17:46:41.968750
1140,95.12,2021-12-17 17:46:41.984375
1141,91.95,2021-12-17 17:46:42.000000
1142,82.98,2021-12-17 17:46:42.015625
1143,67.45,2021-12-17 17:46:42.031250
1144,45.3,2021-12-17 17:46:42.046875
1145,17.92,2021-12-17 17:46:42.062500
1146,-11.45,2021-12-17 17:46:42.078125
1147,-38.22,2021-12-17 17:46:42.093750
1148,-57.83,2021-12-17 17:46:42.109375
1149,-67.57,2021-12-17 17:46:42.125000
1150,-67.64,2021-12-17 17:46:42.140625
1151,-60.86,2021-12-17 17:46:42.156250
1152,-51.49,2021-12-17 17:46:42.171875
1153,-42.92,2021-12-17 17:46:42.187500
1154,-36.63,2021-12-17 17:46:42.203125
1155,-32.01,2021-12-17 17:46:42.218750
1156,-27.72,2021-12-17 17:46:42.234375
1157,-23.05,2021-12-17 17:46:42.250000
1158,-18.67,2021-12-17 17:46:42.265625
1159,-15.97,2021-12-17 17:46:42.281250
1160,-15.75,2021-12-17 17:46:42.296875
1161,-17.42,2021-12-17 17:46:42.312500
1162,-18.93,2021-12-17 17:46:42.328125
1163,-18.19,2021-12-17 17:46:42.343750
1164,-14.37,2021-12-17 17:46:42.359375
1165,-8.52,2021-12-17 17:46:42.375000
1166,-2.92,2021-12-17 17:46:42.390625
1167,0.37,2021-12-17 17:46:42.406250
1168,0.84,2021-12-17 17:46:42.421875
1169,-0.33,2021-12-17 17:46:42.437500
1170,-1.33,2021-12-17 17:46:42.453125
1171,-0.75,2021-12-17 17:46:42.468750
1172,1.39,2021-12-17 17:46:42.484375
1173,3.9,2021-12-17 17:46:42.500000
1174,5.4,2021-12-17 17:46:42.515625
1175,5.26,2021-12-17 17:46:42.531250
1176,4.03,2021-12-17 17:46:42.546875
1177,3.14,2021-12-17 17:46:42.562500
1178,3.88,2021-12-17 17:46:42.578125
1179,6.74,2021-12-17 17:46:42.593750
1180,11.18,2021-12-17 17:46:42.609375
1181,15.78,2021-12-17 17:46:42.625000
1182,18.72,2021-12-17 17:46:42.640625
1183,18.45,2021-12-17 17:46:42.656250
1184,13.99,2021-12-17 17:46:42.671875
1185,5.41,2021-12-17 17:46:42.687500
1186,-6.11,2021-12-17 17:46:42.703125
1187,-18.45,2021-12-17 17:46:42.718750
1188,-29.21,2021-12-17 17:46:42.734375
1189,-36.52,2021-12-17 17:46:42.750000
1190,-39.58,2021-12-17 17:46:42.765625
1191,-38.64,2021-12-17 17:46:42.781250
1192,-34.17,2021-12-17 17:46:42.796875
1193,-26.35,2021-12-17 17:46:42.812500
1194,-14.86,2021-12-17 17:46:42.828125
1195,0.5,2021-12-17 17:46:42.843750
1196,18.97,2021-12-17 17:46:42.859375
1197,38.39,2021-12-17 17:46:42.875000
1198,55.72,2021-12-17 17:46:42.890625
1199,68.26,2021-12-17 17:46:42.906250
1200,74.8,2021-12-17 17:46:42.921875
1201,76.11,2021-12-17 17:46:42.937500
1202,74.29,2021-12-17 17:46:42.953125
1203,71.69,2021-12-17 17:46:42.968750
1204,69.92,2021-12-17 17:46:42.984375
1205,69.64,2021-12-17 17:46:43.000000
1206,70.74,2021-12-17 17:46:43.015625
1207,72.85,2021-12-17 17:46:43.031250
1208,75.48,2021-12-17 17:46:43.046875
1209,77.88,2021-12-17 17:46:43.062500
1210,79.01,2021-12-17 17:46:43.078125
1211,77.87,2021-12-17 17:46:43.093750
1212,74.23,2021-12-17 17:46:43.109375
1213,69.09,2021-12-17 17:46:43.125000
1214,64.45,2021-12-17 17:46:43.140625
1215,62.33,2021-12-17 17:46:43.156250
1216,63.62,2021-12-17 17:46:43.171875
1217,67.32,2021-12-17 17:46:43.187500
1218,70.94,2021-12-17 17:46:43.203125
1219,71.66,2021-12-17 17:46:43.218750
1220,67.71,2021-12-17 17:46:43.234375
1221,58.94,2021-12-17 17:46:43.250000
1222,46.65,2021-12-17 17:46:43.265625
1223,32.55,2021-12-17 17:46:43.281250
1224,17.93,2021-12-17 17:46:43.296875
1225,3.14,2021-12-17 17:46:43.312500
1226,-12.21,2021-12-17 17:46:43.328125
1227,-28.86,2021-12-17 17:46:43.343750
1228,-47.49,2021-12-17 17:46:43.359375
1229,-68.46,2021-12-17 17:46:43.375000
1230,-91.88,2021-12-17 17:46:43.390625
1231,-117.03,2021-12-17 17:46:43.406250
1232,-142.19,2021-12-17 17:46:43.421875
1233,-164.49,2021-12-17 17:46:43.437500
1234,-180.22,2021-12-17 17:46:43.453125
1235,-185.81,2021-12-17 17:46:43.468750
1236,-178.97,2021-12-17 17:46:43.484375
1237,-159.66,2021-12-17 17:46:43.500000
1238,-130.34,2021-12-17 17:46:43.515625
1239,-95.59,2021-12-17 17:46:43.531250
1240,-60.77,2021-12-17 17:46:43.546875
1241,-30.59,2021-12-17 17:46:43.562500
1242,-7.97,2021-12-17 17:46:43.578125
1243,6.42,2021-12-17 17:46:43.593750
1244,13.81,2021-12-17 17:46:43.609375
1245,16.56,2021-12-17 17:46:43.625000
1246,17.09,2021-12-17 17:46:43.640625
1247,17.4,2021-12-17 17:46:43.656250
1248,18.71,2021-12-17 17:46:43.671875
1249,21.57,2021-12-17 17:46:43.687500
1250,26.01,2021-12-17 17:46:43.703125
1251,31.72,2021-12-17 17:46:43.718750
1252,38.09,2021-12-17 17:46:43.734375
1253,44.42,2021-12-17 17:46:43.750000
1254,50.07,2021-12-17 17:46:43.765625
1255,54.4,2021-12-17 17:46:43.781250
1256,56.71,2021-12-17 17:46:43.796875
1257,55.95,2021-12-17 17:46:43.812500
1258,51.16,2021-12-17 17:46:43.828125
1259,41.99,2021-12-17 17:46:43.843750
1260,29.65,2021-12-17 17:46:43.859375
1261,17.03,2021-12-17 17:46:43.875000
1262,7.6,2021-12-17 17:46:43.890625
1263,3.61,2021-12-17 17:46:43.906250
1264,4.55,2021-12-17 17:46:43.921875
1265,6.88,2021-12-17 17:46:43.937500
1266,5.68,2021-12-17 17:46:43.953125
1267,-2.84,2021-12-17 17:46:43.968750
1268,-19.21,2021-12-17 17:46:43.984375
1269,-40.2,2021-12-17 17:46:44.000000
1270,-60.18,2021-12-17 17:46:44.015625
1271,-73.58,2021-12-17 17:46:44.031250
1272,-77.15,2021-12-17 17:46:44.046875
1273,-70.96,2021-12-17 17:46:44.062500
1274,-57.94,2021-12-17 17:46:44.078125
1275,-42.44,2021-12-17 17:46:44.093750
1276,-28.69,2021-12-17 17:46:44.109375
1277,-19.67,2021-12-17 17:46:44.125000
1278,-16.8,2021-12-17 17:46:44.140625
1279,-19.93,2021-12-17 17:46:44.156250
1280,-27.73,2021-12-17 17:46:44.171875
1281,-38.08,2021-12-17 17:46:44.187500
1282,-48.59,2021-12-17 17:46:44.203125
1283,-57.14,2021-12-17 17:46:44.218750
1284,-62.26,2021-12-17 17:46:44.234375
1285,-63.27,2021-12-17 17:46:44.250000
1286,-60.53,2021-12-17 17:46:44.265625
1287,-55.19,2021-12-17 17:46:44.281250
1288,-49.07,2021-12-17 17:46:44.296875
1289,-44.14,2021-12-17 17:46:44.312500
1290,-41.91,2021-12-17 17:46:44.328125
1291,-42.95,2021-12-17 17:46:44.343750
1292,-46.6,2021-12-17 17:46:44.359375
1293,-51.2,2021-12-17 17:46:44.375000
1294,-54.75,2021-12-17 17:46:44.390625
1295,-55.72,2021-12-17 17:46:44.406250
1296,-53.68,2021-12-17 17:46:44.421875
1297,-49.23,2021-12-17 17:46:44.437500
1298,-43.45,2021-12-17 17:46:44.453125
1299,-36.85,2021-12-17 17:46:44.468750
1300,-28.91,2021-12-17 17:46:44.484375
1301,-18.46,2021-12-17 17:46:44.500000
1302,-4.77,2021-12-17 17:46:44.515625
1303,11.21,2021-12-17 17:46:44.531250
1304,26.84,2021-12-17 17:46:44.546875
1305,38.75,2021-12-17 17:46:44.562500
1306,44.56,2021-12-17 17:46:44.578125
1307,44.27,2021-12-17 17:46:44.593750
1308,40.17,2021-12-17 17:46:44.609375
1309,35.78,2021-12-17 17:46:44.625000
1310,33.88,2021-12-17 17:46:44.640625
1311,35.41,2021-12-17 17:46:44.656250
1312,39.37,2021-12-17 17:46:44.671875
1313,43.76,2021-12-17 17:46:44.687500
1314,46.93,2021-12-17 17:46:44.703125
1315,48.37,2021-12-17 17:46:44.718750
1316,48.59,2021-12-17 17:46:44.734375
1317,48.54,2021-12-17 17:46:44.750000
1318,48.9,2021-12-17 17:46:44.765625
1319,49.79,2021-12-17 17:46:44.781250
1320,50.96,2021-12-17 17:46:44.796875
1321,52.1,2021-12-17 17:46:44.812500
1322,53.14,2021-12-17 17:46:44.828125
1323,54.25,2021-12-17 17:46:44.843750
1324,55.54,2021-12-17 17:46:44.859375
1325,56.78,2021-12-17 17:46:44.875000
1326,57.24,2021-12-17 17:46:44.890625
1327,56.04,2021-12-17 17:46:44.906250
1328,52.69,2021-12-17 17:46:44.921875
1329,47.64,2021-12-17 17:46:44.937500
1330,42.34,2021-12-17 17:46:44.953125
1331,38.54,2021-12-17 17:46:44.968750
1332,37.35,2021-12-17 17:46:44.984375
1333,38.39,2021-12-17 17:46:45.000000
1334,39.81,2021-12-17 17:46:45.015625
1335,39.34,2021-12-17 17:46:45.031250
1336,35.53,2021-12-17 17:46:45.046875
1337,28.55,2021-12-17 17:46:45.062500
1338,20.06,2021-12-17 17:46:45.078125
1339,12.2,2021-12-17 17:46:45.093750
1340,6.36,2021-12-17 17:46:45.109375
1341,2.87,2021-12-17 17:46:45.125000
1342,1.14,2021-12-17 17:46:45.140625
1343,0.46,2021-12-17 17:46:45.156250
1344,0.59,2021-12-17 17:46:45.171875
1345,1.69,2021-12-17 17:46:45.187500
1346,3.76,2021-12-17 17:46:45.203125
1347,6.19,2021-12-17 17:46:45.218750
1348,7.85,2021-12-17 17:46:45.234375
1349,7.43,2021-12-17 17:46:45.250000
1350,4.28,2021-12-17 17:46:45.265625
1351,-1.49,2021-12-17 17:46:45.281250
1352,-9.13,2021-12-17 17:46:45.296875
1353,-17.72,2021-12-17 17:46:45.312500
1354,-26.6,2021-12-17 17:46:45.328125
1355,-35.49,2021-12-17 17:46:45.343750
1356,-44.27,2021-12-17 17:46:45.359375
1357,-52.66,2021-12-17 17:46:45.375000
1358,-60.29,2021-12-17 17:46:45.390625
1359,-66.56,2021-12-17 17:46:45.406250
1360,-70.82,2021-12-17 17:46:45.421875
1361,-72.61,2021-12-17 17:46:45.437500
1362,-71.64,2021-12-17 17:46:45.453125
1363,-67.99,2021-12-17 17:46:45.468750
1364,-62.11,2021-12-17 17:46:45.484375
1365,-54.79,2021-12-17 17:46:45.500000
1366,-46.96,2021-12-17 17:46:45.515625
1367,-39.62,2021-12-17 17:46:45.531250
1368,-33.57,2021-12-17 17:46:45.546875
1369,-29.31,2021-12-17 17:46:45.562500
1370,-26.94,2021-12-17 17:46:45.578125
1371,-26.09,2021-12-17 17:46:45.593750
1372,-25.96,2021-12-17 17:46:45.609375
1373,-25.45,2021-12-17 17:46:45.625000
1374,-23.49,2021-12-17 17:46:45.640625
1375,-19.55,2021-12-17 17:46:45.656250
1376,-13.82,2021-12-17 17:46:45.671875
1377,-7.15,2021-12-17 17:46:45.687500
1378,-0.74,2021-12-17 17:46:45.703125
1379,4.47,2021-12-17 17:46:45.718750
1380,8.32,2021-12-17 17:46:45.734375
1381,11.32,2021-12-17 17:46:45.750000
1382,14.2,2021-12-17 17:46:45.765625
1383,17.46,2021-12-17 17:46:45.781250
1384,20.66,2021-12-17 17:46:45.796875
1385,22.7,2021-12-17 17:46:45.812500
1386,22.38,2021-12-17 17:46:45.828125
1387,18.91,2021-12-17 17:46:45.843750
1388,12.45,2021-12-17 17:46:45.859375
1389,4.11,2021-12-17 17:46:45.875000
1390,-4.49,2021-12-17 17:46:45.890625
1391,-11.88,2021-12-17 17:46:45.906250
1392,-17.12,2021-12-17 17:46:45.921875
1393,-20.05,2021-12-17 17:46:45.937500
1394,-21.16,2021-12-17 17:46:45.953125
1395,-21.26,2021-12-17 17:46:45.968750
1396,-21.2,2021-12-17 17:46:45.984375
1397,-21.59,2021-12-17 17:46:46.000000
1398,-22.58,2021-12-17 17:46:46.015625
1399,-23.69,2021-12-17 17:46:46.031250
1400,-23.95,2021-12-17 17:46:46.046875
1401,-22.14,2021-12-17 17:46:46.062500
1402,-17.33,2021-12-17 17:46:46.078125
1403,-9.3,2021-12-17 17:46:46.093750
1404,1.17,2021-12-17 17:46:46.109375
1405,12.24,2021-12-17 17:46:46.125000
1406,21.8,2021-12-17 17:46:46.140625
1407,28.01,2021-12-17 17:46:46.156250
1408,30.03,2021-12-17 17:46:46.171875
1409,28.3,2021-12-17 17:46:46.187500
1410,24.13,2021-12-17 17:46:46.203125
1411,19.15,2021-12-17 17:46:46.218750
1412,14.69,2021-12-17 17:46:46.234375
1413,11.46,2021-12-17 17:46:46.250000
1414,9.39,2021-12-17 17:46:46.265625
1415,8.1,2021-12-17 17:46:46.281250
1416,7.02,2021-12-17 17:46:46.296875
1417,5.78,2021-12-17 17:46:46.312500
1418,4.25,2021-12-17 17:46:46.328125
1419,2.47,2021-12-17 17:46:46.343750
1420,0.59,2021-12-17 17:46:46.359375
1421,-1.18,2021-12-17 17:46:46.375000
1422,-2.74,2021-12-17 17:46:46.390625
1423,-4.05,2021-12-17 17:46:46.406250
1424,-5.13,2021-12-17 17:46:46.421875
1425,-5.88,2021-12-17 17:46:46.437500
1426,-6.25,2021-12-17 17:46:46.453125
1427,-5.89,2021-12-17 17:46:46.468750
1428,-4.54,2021-12-17 17:46:46.484375
1429,-2.03,2021-12-17 17:46:46.500000
1430,1.55,2021-12-17 17:46:46.515625
1431,5.78,2021-12-17 17:46:46.531250
1432,10.18,2021-12-17 17:46:46.546875
1433,14.32,2021-12-17 17:46:46.562500
1434,18.02,2021-12-17 17:46:46.578125
1435,21.08,2021-12-17 17:46:46.593750
1436,23.32,2021-12-17 17:46:46.609375
1437,24.35,2021-12-17 17:46:46.625000
1438,23.64,2021-12-17 17:46:46.640625
1439,20.73,2021-12-17 17:46:46.656250
1440,15.53,2021-12-17 17:46:46.671875
1441,8.67,2021-12-17 17:46:46.687500
1442,1.26,2021-12-17 17:46:46.703125
1443,-5.36,2021-12-17 17:46:46.718750
1444,-10.19,2021-12-17 17:46:46.734375
1445,-12.74,2021-12-17 17:46:46.750000
1446,-13.1,2021-12-17 17:46:46.765625
1447,-11.71,2021-12-17 17:46:46.781250
1448,-9.11,2021-12-17 17:46:46.796875
1449,-5.83,2021-12-17 17:46:46.812500
1450,-2.32,2021-12-17 17:46:46.828125
1451,0.97,2021-12-17 17:46:46.843750
1452,3.55,2021-12-17 17:46:46.859375
1453,4.96,2021-12-17 17:46:46.875000
1454,4.94,2021-12-17 17:46:46.890625
1455,3.41,2021-12-17 17:46:46.906250
1456,0.4,2021-12-17 17:46:46.921875
1457,-3.87,2021-12-17 17:46:46.937500
1458,-9.1,2021-12-17 17:46:46.953125
1459,-14.93,2021-12-17 17:46:46.968750
1460,-20.86,2021-12-17 17:46:46.984375
1461,-26.39,2021-12-17 17:46:47.000000
1462,-31.09,2021-12-17 17:46:47.015625
1463,-34.64,2021-12-17 17:46:47.031250
1464,-36.92,2021-12-17 17:46:47.046875
1465,-38.08,2021-12-17 17:46:47.062500
1466,-38.35,2021-12-17 17:46:47.078125
1467,-38.07,2021-12-17 17:46:47.093750
1468,-37.79,2021-12-17 17:46:47.109375
1469,-37.74,2021-12-17 17:46:47.125000
1470,-37.76,2021-12-17 17:46:47.140625
1471,-37.0,2021-12-17 17:46:47.156250
1472,-34.21,2021-12-17 17:46:47.171875
1473,-28.22,2021-12-17 17:46:47.187500
1474,-18.82,2021-12-17 17:46:47.203125
1475,-6.95,2021-12-17 17:46:47.218750
1476,5.27,2021-12-17 17:46:47.234375
1477,15.41,2021-12-17 17:46:47.250000
1478,21.53,2021-12-17 17:46:47.265625
1479,22.82,2021-12-17 17:46:47.281250
1480,19.6,2021-12-17 17:46:47.296875
1481,13.2,2021-12-17 17:46:47.312500
1482,5.26,2021-12-17 17:46:47.328125
1483,-2.75,2021-12-17 17:46:47.343750
1484,-9.64,2021-12-17 17:46:47.359375
1485,-14.87,2021-12-17 17:46:47.375000
1486,-18.49,2021-12-17 17:46:47.390625
1487,-20.96,2021-12-17 17:46:47.406250
1488,-23.05,2021-12-17 17:46:47.421875
1489,-25.72,2021-12-17 17:46:47.437500
1490,-29.48,2021-12-17 17:46:47.453125
1491,-34.57,2021-12-17 17:46:47.468750
1492,-40.88,2021-12-17 17:46:47.484375
1493,-47.84,2021-12-17 17:46:47.500000
1494,-54.76,2021-12-17 17:46:47.515625
1495,-60.76,2021-12-17 17:46:47.531250
1496,-64.9,2021-12-17 17:46:47.546875
1497,-66.25,2021-12-17 17:46:47.562500
1498,-64.35,2021-12-17 17:46:47.578125
1499,-59.08,2021-12-17 17:46:47.593750
1500,-50.89,2021-12-17 17:46:47.609375
1501,-40.65,2021-12-17 17:46:47.625000
1502,-29.32,2021-12-17 17:46:47.640625
1503,-17.59,2021-12-17 17:46:47.656250
1504,-5.77,2021-12-17 17:46:47.671875
1505,6.47,2021-12-17 17:46:47.687500
1506,19.72,2021-12-17 17:46:47.703125
1507,34.39,2021-12-17 17:46:47.718750
1508,50.24,2021-12-17 17:46:47.734375
1509,66.12,2021-12-17 17:46:47.750000
1510,80.18,2021-12-17 17:46:47.765625
1511,90.7,2021-12-17 17:46:47.781250
1512,96.82,2021-12-17 17:46:47.796875
1513,98.98,2021-12-17 17:46:47.812500
1514,98.99,2021-12-17 17:46:47.828125
1515,99.18,2021-12-17 17:46:47.843750
1516,101.42,2021-12-17 17:46:47.859375
1517,106.35,2021-12-17 17:46:47.875000
1518,113.15,2021-12-17 17:46:47.890625
1519,119.85,2021-12-17 17:46:47.906250
1520,124.25,2021-12-17 17:46:47.921875
1521,124.47,2021-12-17 17:46:47.937500
1522,119.5,2021-12-17 17:46:47.953125
1523,109.24,2021-12-17 17:46:47.968750
1524,94.33,2021-12-17 17:46:47.984375
1525,76.14,2021-12-17 17:46:48.000000
1526,56.68,2021-12-17 17:46:48.015625
1527,38.27,2021-12-17 17:46:48.031250
1528,23.03,2021-12-17 17:46:48.046875
1529,12.34,2021-12-17 17:46:48.062500
1530,6.28,2021-12-17 17:46:48.078125
1531,3.8,2021-12-17 17:46:48.093750
1532,3.41,2021-12-17 17:46:48.109375
1533,3.86,2021-12-17 17:46:48.125000
1534,4.22,2021-12-17 17:46:48.140625
1535,3.8,2021-12-17 17:46:48.156250
1536,1.6,2021-12-17 17:46:48.171875
1537,-3.7,2021-12-17 17:46:48.187500
1538,-12.76,2021-12-17 17:46:48.203125
1539,-24.56,2021-12-17 17:46:48.218750
1540,-35.97,2021-12-17 17:46:48.234375
1541,-42.5,2021-12-17 17:46:48.250000
1542,-40.29,2021-12-17 17:46:48.265625
1543,-27.97,2021-12-17 17:46:48.281250
1544,-7.34,2021-12-17 17:46:48.296875
1545,17.64,2021-12-17 17:46:48.312500
1546,42.96,2021-12-17 17:46:48.328125
1547,66.38,2021-12-17 17:46:48.343750
1548,87.85,2021-12-17 17:46:48.359375
1549,108.38,2021-12-17 17:46:48.375000
1550,128.51,2021-12-17 17:46:48.390625
1551,147.22,2021-12-17 17:46:48.406250
1552,162.3,2021-12-17 17:46:48.421875
1553,171.55,2021-12-17 17:46:48.437500
1554,173.96,2021-12-17 17:46:48.453125
1555,170.02,2021-12-17 17:46:48.468750
1556,160.92,2021-12-17 17:46:48.484375
1557,147.26,2021-12-17 17:46:48.500000
1558,128.35,2021-12-17 17:46:48.515625
1559,102.58,2021-12-17 17:46:48.531250
1560,68.81,2021-12-17 17:46:48.546875
1561,27.93,2021-12-17 17:46:48.562500
1562,-16.58,2021-12-17 17:46:48.578125
1563,-59.76,2021-12-17 17:46:48.593750
1564,-97.21,2021-12-17 17:46:48.609375
1565,-127.22,2021-12-17 17:46:48.625000
1566,-151.53,2021-12-17 17:46:48.640625
1567,-174.35,2021-12-17 17:46:48.656250
1568,-199.96,2021-12-17 17:46:48.671875
1569,-230.43,2021-12-17 17:46:48.687500
1570,-264.67,2021-12-17 17:46:48.703125
1571,-299.01,2021-12-17 17:46:48.718750
1572,-329.28,2021-12-17 17:46:48.734375
1573,-352.85,2021-12-17 17:46:48.750000
1574,-369.59,2021-12-17 17:46:48.765625
1575,-381.68,2021-12-17 17:46:48.781250
1576,-392.54,2021-12-17 17:46:48.796875
1577,-405.75,2021-12-17 17:46:48.812500
1578,-423.81,2021-12-17 17:46:48.828125
1579,-447.39,2021-12-17 17:46:48.843750
1580,-474.3,2021-12-17 17:46:48.859375
1581,-499.28,2021-12-17 17:46:48.875000
1582,-514.8,2021-12-17 17:46:48.890625
1583,-513.28,2021-12-17 17:46:48.906250
1584,-489.38,2021-12-17 17:46:48.921875
1585,-442.1,2021-12-17 17:46:48.937500
1586,-375.58,2021-12-17 17:46:48.953125
1587,-298.2,2021-12-17 17:46:48.968750
1588,-220.54,2021-12-17 17:46:48.984375
1589,-152.45,2021-12-17 17:46:49.000000
1590,-100.44,2021-12-17 17:46:49.015625
1591,-66.02,2021-12-17 17:46:49.031250
1592,-45.85,2021-12-17 17:46:49.046875
1593,-33.33,2021-12-17 17:46:49.062500
1594,-21.28,2021-12-17 17:46:49.078125
1595,-4.72,2021-12-17 17:46:49.093750
1596,17.95,2021-12-17 17:46:49.109375
1597,45.22,2021-12-17 17:46:49.125000
1598,74.55,2021-12-17 17:46:49.140625
1599,104.07,2021-12-17 17:46:49.156250
1600,133.64,2021-12-17 17:46:49.171875
1601,164.01,2021-12-17 17:46:49.187500
1602,195.41,2021-12-17 17:46:49.203125
1603,226.64,2021-12-17 17:46:49.218750
1604,255.46,2021-12-17 17:46:49.234375
1605,279.92,2021-12-17 17:46:49.250000
1606,299.43,2021-12-17 17:46:49.265625
1607,314.91,2021-12-17 17:46:49.281250
1608,327.59,2021-12-17 17:46:49.296875
1609,337.75,2021-12-17 17:46:49.312500
1610,344.29,2021-12-17 17:46:49.328125
1611,345.15,2021-12-17 17:46:49.343750
1612,338.61,2021-12-17 17:46:49.359375
1613,324.32,2021-12-17 17:46:49.375000
1614,303.78,2021-12-17 17:46:49.390625
1615,279.84,2021-12-17 17:46:49.406250
1616,255.62,2021-12-17 17:46:49.421875
1617,233.76,2021-12-17 17:46:49.437500
1618,215.69,2021-12-17 17:46:49.453125
1619,201.56,2021-12-17 17:46:49.468750
1620,190.26,2021-12-17 17:46:49.484375
1621,179.93,2021-12-17 17:46:49.500000
1622,168.59,2021-12-17 17:46:49.515625
1623,154.94,2021-12-17 17:46:49.531250
1624,138.72,2021-12-17 17:46:49.546875
1625,120.62,2021-12-17 17:46:49.562500
1626,102.03,2021-12-17 17:46:49.578125
1627,84.39,2021-12-17 17:46:49.593750
1628,68.78,2021-12-17 17:46:49.609375
1629,55.53,2021-12-17 17:46:49.625000
1630,44.48,2021-12-17 17:46:49.640625
1631,35.25,2021-12-17 17:46:49.656250
1632,27.6,2021-12-17 17:46:49.671875
1633,21.61,2021-12-17 17:46:49.687500
1634,17.46,2021-12-17 17:46:49.703125
1635,15.28,2021-12-17 17:46:49.718750
1636,14.85,2021-12-17 17:46:49.734375
1637,15.73,2021-12-17 17:46:49.750000
1638,17.15,2021-12-17 17:46:49.765625
1639,18.32,2021-12-17 17:46:49.781250
1640,18.42,2021-12-17 17:46:49.796875
1641,16.74,2021-12-17 17:46:49.812500
1642,13.06,2021-12-17 17:46:49.828125
1643,7.8,2021-12-17 17:46:49.843750
1644,1.92,2021-12-17 17:46:49.859375
1645,-3.29,2021-12-17 17:46:49.875000
1646,-6.91,2021-12-17 17:46:49.890625
1647,-8.74,2021-12-17 17:46:49.906250
1648,-9.49,2021-12-17 17:46:49.921875
1649,-10.45,2021-12-17 17:46:49.937500
1650,-13.03,2021-12-17 17:46:49.953125
1651,-17.9,2021-12-17 17:46:49.968750
1652,-24.87,2021-12-17 17:46:49.984375
1653,-33.07,2021-12-17 17:46:50.000000
1654,-41.55,2021-12-17 17:46:50.015625
1655,-49.81,2021-12-17 17:46:50.031250
1656,-57.92,2021-12-17 17:46:50.046875
1657,-66.31,2021-12-17 17:46:50.062500
1658,-75.19,2021-12-17 17:46:50.078125
1659,-84.53,2021-12-17 17:46:50.093750
1660,-93.84,2021-12-17 17:46:50.109375
1661,-102.42,2021-12-17 17:46:50.125000
1662,-109.33,2021-12-17 17:46:50.140625
1663,-113.41,2021-12-17 17:46:50.156250
1664,-113.39,2021-12-17 17:46:50.171875
1665,-108.04,2021-12-17 17:46:50.187500
1666,-96.88,2021-12-17 17:46:50.203125
1667,-80.53,2021-12-17 17:46:50.218750
1668,-61.05,2021-12-17 17:46:50.234375
1669,-41.26,2021-12-17 17:46:50.250000
1670,-23.86,2021-12-17 17:46:50.265625
1671,-10.4,2021-12-17 17:46:50.281250
1672,-0.93,2021-12-17 17:46:50.296875
1673,5.7,2021-12-17 17:46:50.312500
1674,10.98,2021-12-17 17:46:50.328125
1675,16.07,2021-12-17 17:46:50.343750
1676,21.42,2021-12-17 17:46:50.359375
1677,27.0,2021-12-17 17:46:50.375000
1678,32.52,2021-12-17 17:46:50.390625
1679,37.65,2021-12-17 17:46:50.406250
1680,41.88,2021-12-17 17:46:50.421875
1681,44.51,2021-12-17 17:46:50.437500
1682,44.78,2021-12-17 17:46:50.453125
1683,42.28,2021-12-17 17:46:50.468750
1684,37.23,2021-12-17 17:46:50.484375
1685,30.45,2021-12-17 17:46:50.500000
1686,23.02,2021-12-17 17:46:50.515625
1687,15.87,2021-12-17 17:46:50.531250
1688,9.44,2021-12-17 17:46:50.546875
1689,3.74,2021-12-17 17:46:50.562500
1690,-1.25,2021-12-17 17:46:50.578125
1691,-5.49,2021-12-17 17:46:50.593750
1692,-8.69,2021-12-17 17:46:50.609375
1693,-10.63,2021-12-17 17:46:50.625000
1694,-11.31,2021-12-17 17:46:50.640625
1695,-10.97,2021-12-17 17:46:50.656250
1696,-10.0,2021-12-17 17:46:50.671875
1697,-8.81,2021-12-17 17:46:50.687500
1698,-7.76,2021-12-17 17:46:50.703125
1699,-7.03,2021-12-17 17:46:50.718750
1700,-6.69,2021-12-17 17:46:50.734375
1701,-6.56,2021-12-17 17:46:50.750000
1702,-6.15,2021-12-17 17:46:50.765625
1703,-4.82,2021-12-17 17:46:50.781250
1704,-1.99,2021-12-17 17:46:50.796875
1705,2.38,2021-12-17 17:46:50.812500
1706,7.58,2021-12-17 17:46:50.828125
1707,12.29,2021-12-17 17:46:50.843750
1708,15.14,2021-12-17 17:46:50.859375
1709,15.42,2021-12-17 17:46:50.875000
1710,13.4,2021-12-17 17:46:50.890625
1711,10.21,2021-12-17 17:46:50.906250
1712,7.28,2021-12-17 17:46:50.921875
1713,5.65,2021-12-17 17:46:50.937500
1714,5.53,2021-12-17 17:46:50.953125
1715,6.35,2021-12-17 17:46:50.968750
1716,6.98,2021-12-17 17:46:50.984375
1717,6.4,2021-12-17 17:46:51.000000
1718,4.02,2021-12-17 17:46:51.015625
1719,-0.04,2021-12-17 17:46:51.031250
1720,-5.18,2021-12-17 17:46:51.046875
1721,-10.45,2021-12-17 17:46:51.062500
1722,-14.94,2021-12-17 17:46:51.078125
1723,-17.99,2021-12-17 17:46:51.093750
1724,-19.13,2021-12-17 17:46:51.109375
1725,-18.02,2021-12-17 17:46:51.125000
1726,-14.21,2021-12-17 17:46:51.140625
1727,-7.37,2021-12-17 17:46:51.156250
1728,2.39,2021-12-17 17:46:51.171875
1729,14.38,2021-12-17 17:46:51.187500
1730,27.31,2021-12-17 17:46:51.203125
1731,39.77,2021-12-17 17:46:51.218750
1732,50.83,2021-12-17 17:46:51.234375
1733,60.22,2021-12-17 17:46:51.250000
1734,68.17,2021-12-17 17:46:51.265625
1735,74.73,2021-12-17 17:46:51.281250
1736,79.24,2021-12-17 17:46:51.296875
1737,80.2,2021-12-17 17:46:51.312500
1738,75.99,2021-12-17 17:46:51.328125
1739,65.82,2021-12-17 17:46:51.343750
1740,50.4,2021-12-17 17:46:51.359375
1741,32.23,2021-12-17 17:46:51.375000
1742,14.82,2021-12-17 17:46:51.390625
1743,1.69,2021-12-17 17:46:51.406250
1744,-4.97,2021-12-17 17:46:51.421875
1745,-4.91,2021-12-17 17:46:51.437500
1746,0.08,2021-12-17 17:46:51.453125
1747,7.05,2021-12-17 17:46:51.468750
1748,12.89,2021-12-17 17:46:51.484375
1749,15.53,2021-12-17 17:46:51.500000
1750,14.45,2021-12-17 17:46:51.515625
1751,10.72,2021-12-17 17:46:51.531250
1752,6.19,2021-12-17 17:46:51.546875
1753,2.78,2021-12-17 17:46:51.562500
1754,1.61,2021-12-17 17:46:51.578125
1755,2.84,2021-12-17 17:46:51.593750
1756,5.95,2021-12-17 17:46:51.609375
1757,10.04,2021-12-17 17:46:51.625000
1758,14.1,2021-12-17 17:46:51.640625
1759,17.2,2021-12-17 17:46:51.656250
1760,18.48,2021-12-17 17:46:51.671875
1761,17.36,2021-12-17 17:46:51.687500
1762,13.96,2021-12-17 17:46:51.703125
1763,9.19,2021-12-17 17:46:51.718750
1764,4.65,2021-12-17 17:46:51.734375
1765,2.02,2021-12-17 17:46:51.750000
1766,2.22,2021-12-17 17:46:51.765625
1767,4.82,2021-12-17 17:46:51.781250
1768,8.41,2021-12-17 17:46:51.796875
1769,11.2,2021-12-17 17:46:51.812500
1770,11.88,2021-12-17 17:46:51.828125
1771,10.28,2021-12-17 17:46:51.843750
1772,7.12,2021-12-17 17:46:51.859375
1773,3.51,2021-12-17 17:46:51.875000
1774,0.28,2021-12-17 17:46:51.890625
1775,-2.29,2021-12-17 17:46:51.906250
1776,-4.38,2021-12-17 17:46:51.921875
1777,-6.07,2021-12-17 17:46:51.937500
1778,-7.2,2021-12-17 17:46:51.953125
1779,-7.46,2021-12-17 17:46:51.968750
1780,-6.76,2021-12-17 17:46:51.984375
1781,-5.46,2021-12-17 17:46:52.000000
1782,-4.42,2021-12-17 17:46:52.015625
1783,-4.46,2021-12-17 17:46:52.031250
1784,-6.04,2021-12-17 17:46:52.046875
1785,-9.03,2021-12-17 17:46:52.062500
1786,-12.73,2021-12-17 17:46:52.078125
1787,-16.23,2021-12-17 17:46:52.093750
1788,-18.74,2021-12-17 17:46:52.109375
1789,-19.66,2021-12-17 17:46:52.125000
1790,-18.76,2021-12-17 17:46:52.140625
1791,-16.17,2021-12-17 17:46:52.156250
1792,-12.36,2021-12-17 17:46:52.171875
1793,-8.11,2021-12-17 17:46:52.187500
1794,-4.48,2021-12-17 17:46:52.203125
1795,-2.29,2021-12-17 17:46:52.218750
1796,-1.95,2021-12-17 17:46:52.234375
1797,-3.27,2021-12-17 17:46:52.250000
1798,-5.55,2021-12-17 17:46:52.265625
1799,-8.07,2021-12-17 17:46:52.281250
1800,-10.51,2021-12-17 17:46:52.296875
1801,-13.04,2021-12-17 17:46:52.312500
1802,-16.27,2021-12-17 17:46:52.328125
1803,-20.82,2021-12-17 17:46:52.343750
1804,-26.78,2021-12-17 17:46:52.359375
1805,-33.53,2021-12-17 17:46:52.375000
1806,-39.84,2021-12-17 17:46:52.390625
1807,-44.15,2021-12-17 17:46:52.406250
1808,-45.23,2021-12-17 17:46:52.421875
1809,-42.65,2021-12-17 17:46:52.437500
1810,-36.95,2021-12-17 17:46:52.453125
1811,-29.39,2021-12-17 17:46:52.468750
1812,-21.6,2021-12-17 17:46:52.484375
1813,-14.85,2021-12-17 17:46:52.500000
1814,-9.81,2021-12-17 17:46:52.515625
1815,-6.45,2021-12-17 17:46:52.531250
1816,-4.26,2021-12-17 17:46:52.546875
1817,-2.58,2021-12-17 17:46:52.562500
1818,-0.94,2021-12-17 17:46:52.578125
1819,0.8,2021-12-17 17:46:52.593750
1820,2.54,2021-12-17 17:46:52.609375
1821,4.11,2021-12-17 17:46:52.625000
1822,5.41,2021-12-17 17:46:52.640625
1823,6.45,2021-12-17 17:46:52.656250
1824,7.32,2021-12-17 17:46:52.671875
1825,8.21,2021-12-17 17:46:52.687500
1826,9.16,2021-12-17 17:46:52.703125
1827,10.07,2021-12-17 17:46:52.718750
1828,10.78,2021-12-17 17:46:52.734375
1829,11.11,2021-12-17 17:46:52.750000
1830,11.0,2021-12-17 17:46:52.765625
1831,10.52,2021-12-17 17:46:52.781250
1832,9.84,2021-12-17 17:46:52.796875
1833,9.05,2021-12-17 17:46:52.812500
1834,8.09,2021-12-17 17:46:52.828125
1835,6.84,2021-12-17 17:46:52.843750
1836,5.25,2021-12-17 17:46:52.859375
1837,3.52,2021-12-17 17:46:52.875000
1838,2.15,2021-12-17 17:46:52.890625
1839,1.68,2021-12-17 17:46:52.906250
1840,2.47,2021-12-17 17:46:52.921875
1841,4.4,2021-12-17 17:46:52.937500
1842,6.94,2021-12-17 17:46:52.953125
1843,9.48,2021-12-17 17:46:52.968750
1844,11.59,2021-12-17 17:46:52.984375
1845,13.22,2021-12-17 17:46:53.000000
1846,14.55,2021-12-17 17:46:53.015625
1847,15.89,2021-12-17 17:46:53.031250
1848,17.09,2021-12-17 17:46:53.046875
1849,17.7,2021-12-17 17:46:53.062500
1850,17.11,2021-12-17 17:46:53.078125
1851,14.94,2021-12-17 17:46:53.093750
1852,11.42,2021-12-17 17:46:53.109375
1853,7.26,2021-12-17 17:46:53.125000
1854,3.41,2021-12-17 17:46:53.140625
1855,0.51,2021-12-17 17:46:53.156250
1856,-1.2,2021-12-17 17:46:53.171875
1857,-2.09,2021-12-17 17:46:53.187500
1858,-2.72,2021-12-17 17:46:53.203125
1859,-3.62,2021-12-17 17:46:53.218750
1860,-4.95,2021-12-17 17:46:53.234375
1861,-6.56,2021-12-17 17:46:53.250000
1862,-8.21,2021-12-17 17:46:53.265625
1863,-9.61,2021-12-17 17:46:53.281250
1864,-10.74,2021-12-17 17:46:53.296875
1865,-11.69,2021-12-17 17:46:53.312500
1866,-12.64,2021-12-17 17:46:53.328125
1867,-13.77,2021-12-17 17:46:53.343750
1868,-15.14,2021-12-17 17:46:53.359375
1869,-16.57,2021-12-17 17:46:53.375000
1870,-17.75,2021-12-17 17:46:53.390625
1871,-18.26,2021-12-17 17:46:53.406250
1872,-17.68,2021-12-17 17:46:53.421875
1873,-15.84,2021-12-17 17:46:53.437500
1874,-12.96,2021-12-17 17:46:53.453125
1875,-9.68,2021-12-17 17:46:53.468750
1876,-6.91,2021-12-17 17:46:53.484375
1877,-5.37,2021-12-17 17:46:53.500000
1878,-5.21,2021-12-17 17:46:53.515625
1879,-5.75,2021-12-17 17:46:53.531250
1880,-5.67,2021-12-17 17:46:53.546875
1881,-3.62,2021-12-17 17:46:53.562500
1882,1.09,2021-12-17 17:46:53.578125
1883,8.0,2021-12-17 17:46:53.593750
1884,15.6,2021-12-17 17:46:53.609375
1885,21.93,2021-12-17 17:46:53.625000
1886,25.52,2021-12-17 17:46:53.640625
1887,25.85,2021-12-17 17:46:53.656250
1888,23.54,2021-12-17 17:46:53.671875
1889,19.93,2021-12-17 17:46:53.687500
1890,16.38,2021-12-17 17:46:53.703125
1891,13.83,2021-12-17 17:46:53.718750
1892,12.59,2021-12-17 17:46:53.734375
1893,12.66,2021-12-17 17:46:53.750000
1894,13.73,2021-12-17 17:46:53.765625
1895,15.5,2021-12-17 17:46:53.781250
1896,17.52,2021-12-17 17:46:53.796875
1897,19.03,2021-12-17 17:46:53.812500
1898,19.18,2021-12-17 17:46:53.828125
1899,17.24,2021-12-17 17:46:53.843750
1900,13.05,2021-12-17 17:46:53.859375
1901,7.16,2021-12-17 17:46:53.875000
1902,0.81,2021-12-17 17:46:53.890625
1903,-4.74,2021-12-17 17:46:53.906250
1904,-8.58,2021-12-17 17:46:53.921875
1905,-10.61,2021-12-17 17:46:53.937500
1906,-11.4,2021-12-17 17:46:53.953125
1907,-11.92,2021-12-17 17:46:53.968750
1908,-12.92,2021-12-17 17:46:53.984375
1909,-14.79,2021-12-17 17:46:54.000000
1910,-17.29,2021-12-17 17:46:54.015625
1911,-19.9,2021-12-17 17:46:54.031250
1912,-22.07,2021-12-17 17:46:54.046875
1913,-23.45,2021-12-17 17:46:54.062500
1914,-23.97,2021-12-17 17:46:54.078125
1915,-23.6,2021-12-17 17:46:54.093750
1916,-22.36,2021-12-17 17:46:54.109375
1917,-20.33,2021-12-17 17:46:54.125000
1918,-17.55,2021-12-17 17:46:54.140625
1919,-14.14,2021-12-17 17:46:54.156250
1920,-10.28,2021-12-17 17:46:54.171875
1921,-6.23,2021-12-17 17:46:54.187500
1922,-2.32,2021-12-17 17:46:54.203125
1923,1.09,2021-12-17 17:46:54.218750
1924,3.73,2021-12-17 17:46:54.234375
1925,5.63,2021-12-17 17:46:54.250000
1926,7.02,2021-12-17 17:46:54.265625
1927,8.31,2021-12-17 17:46:54.281250
1928,9.98,2021-12-17 17:46:54.296875
1929,12.4,2021-12-17 17:46:54.312500
1930,15.69,2021-12-17 17:46:54.328125
1931,19.51,2021-12-17 17:46:54.343750
1932,23.19,2021-12-17 17:46:54.359375
1933,25.89,2021-12-17 17:46:54.375000
1934,26.97,2021-12-17 17:46:54.390625
1935,26.3,2021-12-17 17:46:54.406250
1936,24.29,2021-12-17 17:46:54.421875
1937,21.71,2021-12-17 17:46:54.437500
1938,19.31,2021-12-17 17:46:54.453125
1939,17.49,2021-12-17 17:46:54.468750
1940,16.09,2021-12-17 17:46:54.484375
1941,14.51,2021-12-17 17:46:54.500000
1942,11.94,2021-12-17 17:46:54.515625
1943,7.84,2021-12-17 17:46:54.531250
1944,2.1,2021-12-17 17:46:54.546875
1945,-4.86,2021-12-17 17:46:54.562500
1946,-12.21,2021-12-17 17:46:54.578125
1947,-18.85,2021-12-17 17:46:54.593750
1948,-23.58,2021-12-17 17:46:54.609375
1949,-25.52,2021-12-17 17:46:54.625000
1950,-24.14,2021-12-17 17:46:54.640625
1951,-19.73,2021-12-17 17:46:54.656250
1952,-13.36,2021-12-17 17:46:54.671875
1953,-6.64,2021-12-17 17:46:54.687500
1954,-1.21,2021-12-17 17:46:54.703125
1955,1.82,2021-12-17 17:46:54.718750
1956,2.21,2021-12-17 17:46:54.734375
1957,0.8,2021-12-17 17:46:54.750000
1958,-1.09,2021-12-17 17:46:54.765625
1959,-2.07,2021-12-17 17:46:54.781250
1960,-1.26,2021-12-17 17:46:54.796875
1961,1.36,2021-12-17 17:46:54.812500
1962,5.41,2021-12-17 17:46:54.828125
1963,10.42,2021-12-17 17:46:54.843750
1964,16.15,2021-12-17 17:46:54.859375
1965,22.59,2021-12-17 17:46:54.875000
1966,29.56,2021-12-17 17:46:54.890625
1967,36.39,2021-12-17 17:46:54.906250
1968,41.88,2021-12-17 17:46:54.921875
1969,44.85,2021-12-17 17:46:54.937500
1970,44.76,2021-12-17 17:46:54.953125
1971,42.25,2021-12-17 17:46:54.968750
1972,38.86,2021-12-17 17:46:54.984375
1973,36.24,2021-12-17 17:46:55.000000
1974,35.12,2021-12-17 17:46:55.015625
1975,34.9,2021-12-17 17:46:55.031250
1976,34.11,2021-12-17 17:46:55.046875
1977,31.21,2021-12-17 17:46:55.062500
1978,25.59,2021-12-17 17:46:55.078125
1979,17.84,2021-12-17 17:46:55.093750
1980,9.34,2021-12-17 17:46:55.109375
1981,1.49,2021-12-17 17:46:55.125000
1982,-4.75,2021-12-17 17:46:55.140625
1983,-9.15,2021-12-17 17:46:55.156250
1984,-11.93,2021-12-17 17:46:55.171875
1985,-13.53,2021-12-17 17:46:55.187500
1986,-14.37,2021-12-17 17:46:55.203125
1987,-14.84,2021-12-17 17:46:55.218750
1988,-15.19,2021-12-17 17:46:55.234375
1989,-15.47,2021-12-17 17:46:55.250000
1990,-15.52,2021-12-17 17:46:55.265625
1991,-14.92,2021-12-17 17:46:55.281250
1992,-13.37,2021-12-17 17:46:55.296875
1993,-10.81,2021-12-17 17:46:55.312500
1994,-7.73,2021-12-17 17:46:55.328125
1995,-4.81,2021-12-17 17:46:55.343750
1996,-2.78,2021-12-17 17:46:55.359375
1997,-2.03,2021-12-17 17:46:55.375000
1998,-2.55,2021-12-17 17:46:55.390625
1999,-4.07,2021-12-17 17:46:55.406250
2000,-6.22,2021-12-17 17:46:55.421875
2001,-8.82,2021-12-17 17:46:55.437500
2002,-11.62,2021-12-17 17:46:55.453125
2003,-14.44,2021-12-17 17:46:55.468750
2004,-16.98,2021-12-17 17:46:55.484375
2005,-18.9,2021-12-17 17:46:55.500000
2006,-19.99,2021-12-17 17:46:55.515625
2007,-20.23,2021-12-17 17:46:55.531250
2008,-19.7,2021-12-17 17:46:55.546875
2009,-18.61,2021-12-17 17:46:55.562500
2010,-17.29,2021-12-17 17:46:55.578125
2011,-15.93,2021-12-17 17:46:55.593750
2012,-14.88,2021-12-17 17:46:55.609375
2013,-14.39,2021-12-17 17:46:55.625000
2014,-14.67,2021-12-17 17:46:55.640625
2015,-15.78,2021-12-17 17:46:55.656250
2016,-17.63,2021-12-17 17:46:55.671875
2017,-19.78,2021-12-17 17:46:55.687500
2018,-21.46,2021-12-17 17:46:55.703125
2019,-21.62,2021-12-17 17:46:55.718750
2020,-19.07,2021-12-17 17:46:55.734375
2021,-13.1,2021-12-17 17:46:55.750000
2022,-3.96,2021-12-17 17:46:55.765625
2023,7.16,2021-12-17 17:46:55.781250
2024,18.14,2021-12-17 17:46:55.796875
2025,26.86,2021-12-17 17:46:55.812500
2026,31.95,2021-12-17 17:46:55.828125
2027,33.29,2021-12-17 17:46:55.843750
2028,31.84,2021-12-17 17:46:55.859375
2029,29.13,2021-12-17 17:46:55.875000
2030,26.34,2021-12-17 17:46:55.890625
2031,23.82,2021-12-17 17:46:55.906250
2032,21.31,2021-12-17 17:46:55.921875
2033,18.1,2021-12-17 17:46:55.937500
2034,13.87,2021-12-17 17:46:55.953125
2035,8.81,2021-12-17 17:46:55.968750
2036,3.6,2021-12-17 17:46:55.984375
2037,-0.88,2021-12-17 17:46:56.000000
2038,-3.9,2021-12-17 17:46:56.015625
2039,-5.2,2021-12-17 17:46:56.031250
2040,-5.04,2021-12-17 17:46:56.046875
2041,-3.91,2021-12-17 17:46:56.062500
2042,-2.47,2021-12-17 17:46:56.078125
2043,-0.9,2021-12-17 17:46:56.093750
2044,1.05,2021-12-17 17:46:56.109375
2045,3.85,2021-12-17 17:46:56.125000
2046,7.88,2021-12-17 17:46:56.140625
2047,12.96,2021-12-17 17:46:56.156250
2048,18.18,2021-12-17 17:46:56.171875
2049,22.25,2021-12-17 17:46:56.187500
2050,23.99,2021-12-17 17:46:56.203125
2051,22.64,2021-12-17 17:46:56.218750
2052,18.28,2021-12-17 17:46:56.234375
2053,11.62,2021-12-17 17:46:56.250000
2054,3.49,2021-12-17 17:46:56.265625
2055,-5.14,2021-12-17 17:46:56.281250
2056,-13.37,2021-12-17 17:46:56.296875
2057,-20.21,2021-12-17 17:46:56.312500
2058,-24.68,2021-12-17 17:46:56.328125
2059,-26.05,2021-12-17 17:46:56.343750
2060,-24.32,2021-12-17 17:46:56.359375
2061,-20.21,2021-12-17 17:46:56.375000
2062,-14.97,2021-12-17 17:46:56.390625
2063,-10.04,2021-12-17 17:46:56.406250
2064,-6.19,2021-12-17 17:46:56.421875
2065,-3.56,2021-12-17 17:46:56.437500
2066,-1.68,2021-12-17 17:46:56.453125
2067,0.03,2021-12-17 17:46:56.468750
2068,1.68,2021-12-17 17:46:56.484375
2069,2.77,2021-12-17 17:46:56.500000
2070,2.55,2021-12-17 17:46:56.515625
2071,0.49,2021-12-17 17:46:56.531250
2072,-3.33,2021-12-17 17:46:56.546875
2073,-8.09,2021-12-17 17:46:56.562500
2074,-12.73,2021-12-17 17:46:56.578125
2075,-16.39,2021-12-17 17:46:56.593750
2076,-18.78,2021-12-17 17:46:56.609375
2077,-20.21,2021-12-17 17:46:56.625000
2078,-21.3,2021-12-17 17:46:56.640625
2079,-22.46,2021-12-17 17:46:56.656250
2080,-23.65,2021-12-17 17:46:56.671875
2081,-24.42,2021-12-17 17:46:56.687500
2082,-24.33,2021-12-17 17:46:56.703125
2083,-23.42,2021-12-17 17:46:56.718750
2084,-22.53,2021-12-17 17:46:56.734375
2085,-22.96,2021-12-17 17:46:56.750000
2086,-26.16,2021-12-17 17:46:56.765625
2087,-33.15,2021-12-17 17:46:56.781250
2088,-44.07,2021-12-17 17:46:56.796875
2089,-58.06,2021-12-17 17:46:56.812500
2090,-73.34,2021-12-17 17:46:56.828125
2091,-87.58,2021-12-17 17:46:56.843750
2092,-98.3,2021-12-17 17:46:56.859375
2093,-103.39,2021-12-17 17:46:56.875000
2094,-101.6,2021-12-17 17:46:56.890625
2095,-93.16,2021-12-17 17:46:56.906250
2096,-79.92,2021-12-17 17:46:56.921875
2097,-65.23,2021-12-17 17:46:56.937500
2098,-53.17,2021-12-17 17:46:56.953125
2099,-47.21,2021-12-17 17:46:56.968750
2100,-49.16,2021-12-17 17:46:56.984375
2101,-58.54,2021-12-17 17:46:57.000000
2102,-72.91,2021-12-17 17:46:57.015625
2103,-88.67,2021-12-17 17:46:57.031250
2104,-102.24,2021-12-17 17:46:57.046875
2105,-110.76,2021-12-17 17:46:57.062500
2106,-112.49,2021-12-17 17:46:57.078125
2107,-107.09,2021-12-17 17:46:57.093750
2108,-95.24,2021-12-17 17:46:57.109375
2109,-78.78,2021-12-17 17:46:57.125000
2110,-60.17,2021-12-17 17:46:57.140625
2111,-41.73,2021-12-17 17:46:57.156250
2112,-24.46,2021-12-17 17:46:57.171875
2113,-7.2,2021-12-17 17:46:57.187500
2114,13.28,2021-12-17 17:46:57.203125
2115,41.02,2021-12-17 17:46:57.218750
2116,78.68,2021-12-17 17:46:57.234375
2117,126.05,2021-12-17 17:46:57.250000
2118,179.58,2021-12-17 17:46:57.265625
2119,233.63,2021-12-17 17:46:57.281250
2120,282.65,2021-12-17 17:46:57.296875
2121,322.74,2021-12-17 17:46:57.312500
2122,352.21,2021-12-17 17:46:57.328125
2123,370.69,2021-12-17 17:46:57.343750
2124,377.91,2021-12-17 17:46:57.359375
2125,373.05,2021-12-17 17:46:57.375000
2126,355.34,2021-12-17 17:46:57.390625
2127,325.22,2021-12-17 17:46:57.406250
2128,285.32,2021-12-17 17:46:57.421875
2129,240.37,2021-12-17 17:46:57.437500
2130,195.79,2021-12-17 17:46:57.453125
2131,155.95,2021-12-17 17:46:57.468750
2132,122.78,2021-12-17 17:46:57.484375
2133,95.64,2021-12-17 17:46:57.500000
2134,72.29,2021-12-17 17:46:57.515625
2135,50.53,2021-12-17 17:46:57.531250
2136,29.28,2021-12-17 17:46:57.546875
2137,8.77,2021-12-17 17:46:57.562500
2138,-10.01,2021-12-17 17:46:57.578125
2139,-26.4,2021-12-17 17:46:57.593750
2140,-40.66,2021-12-17 17:46:57.609375
2141,-53.94,2021-12-17 17:46:57.625000
2142,-67.64,2021-12-17 17:46:57.640625
2143,-82.55,2021-12-17 17:46:57.656250
2144,-98.34,2021-12-17 17:46:57.671875
2145,-113.47,2021-12-17 17:46:57.687500
2146,-125.98,2021-12-17 17:46:57.703125
2147,-134.33,2021-12-17 17:46:57.718750
2148,-138.17,2021-12-17 17:46:57.734375
2149,-138.36,2021-12-17 17:46:57.750000
2150,-136.41,2021-12-17 17:46:57.765625
2151,-133.53,2021-12-17 17:46:57.781250
2152,-129.95,2021-12-17 17:46:57.796875
2153,-124.9,2021-12-17 17:46:57.812500
2154,-117.29,2021-12-17 17:46:57.828125
2155,-106.68,2021-12-17 17:46:57.843750
2156,-94.03,2021-12-17 17:46:57.859375
2157,-81.72,2021-12-17 17:46:57.875000
2158,-72.78,2021-12-17 17:46:57.890625
2159,-69.53,2021-12-17 17:46:57.906250
2160,-72.52,2021-12-17 17:46:57.921875
2161,-79.94,2021-12-17 17:46:57.937500
2162,-88.04,2021-12-17 17:46:57.953125
2163,-92.19,2021-12-17 17:46:57.968750
2164,-88.51,2021-12-17 17:46:57.984375
2165,-75.42,2021-12-17 17:46:58.000000
2166,-54.37,2021-12-17 17:46:58.015625
2167,-29.73,2021-12-17 17:46:58.031250
2168,-7.32,2021-12-17 17:46:58.046875
2169,7.6,2021-12-17 17:46:58.062500
2170,12.11,2021-12-17 17:46:58.078125
2171,6.57,2021-12-17 17:46:58.093750
2172,-5.7,2021-12-17 17:46:58.109375
2173,-19.69,2021-12-17 17:46:58.125000
2174,-30.39,2021-12-17 17:46:58.140625
2175,-34.2,2021-12-17 17:46:58.156250
2176,-29.75,2021-12-17 17:46:58.171875
2177,-17.94,2021-12-17 17:46:58.187500
2178,-1.37,2021-12-17 17:46:58.203125
2179,16.71,2021-12-17 17:46:58.218750
2180,33.22,2021-12-17 17:46:58.234375
2181,46.07,2021-12-17 17:46:58.250000
2182,54.42,2021-12-17 17:46:58.265625
2183,58.46,2021-12-17 17:46:58.281250
2184,58.97,2021-12-17 17:46:58.296875
2185,56.75,2021-12-17 17:46:58.312500
2186,52.49,2021-12-17 17:46:58.328125
2187,46.98,2021-12-17 17:46:58.343750
2188,41.22,2021-12-17 17:46:58.359375
2189,36.33,2021-12-17 17:46:58.375000
2190,33.09,2021-12-17 17:46:58.390625
2191,31.4,2021-12-17 17:46:58.406250
2192,30.29,2021-12-17 17:46:58.421875
2193,28.29,2021-12-17 17:46:58.437500
2194,24.31,2021-12-17 17:46:58.453125
2195,18.22,2021-12-17 17:46:58.468750
2196,10.97,2021-12-17 17:46:58.484375
2197,3.94,2021-12-17 17:46:58.500000
2198,-1.67,2021-12-17 17:46:58.515625
2199,-5.42,2021-12-17 17:46:58.531250
2200,-7.83,2021-12-17 17:46:58.546875
2201,-9.87,2021-12-17 17:46:58.562500
2202,-12.43,2021-12-17 17:46:58.578125
2203,-15.82,2021-12-17 17:46:58.593750
2204,-19.76,2021-12-17 17:46:58.609375
2205,-23.46,2021-12-17 17:46:58.625000
2206,-26.17,2021-12-17 17:46:58.640625
2207,-27.48,2021-12-17 17:46:58.656250
2208,-27.46,2021-12-17 17:46:58.671875
2209,-26.51,2021-12-17 17:46:58.687500
2210,-25.2,2021-12-17 17:46:58.703125
2211,-23.77,2021-12-17 17:46:58.718750
2212,-22.04,2021-12-17 17:46:58.734375
2213,-19.42,2021-12-17 17:46:58.750000
2214,-15.17,2021-12-17 17:46:58.765625
2215,-8.9,2021-12-17 17:46:58.781250
2216,-0.91,2021-12-17 17:46:58.796875
2217,7.67,2021-12-17 17:46:58.812500
2218,15.32,2021-12-17 17:46:58.828125
2219,20.5,2021-12-17 17:46:58.843750
2220,22.38,2021-12-17 17:46:58.859375
2221,21.01,2021-12-17 17:46:58.875000
2222,17.16,2021-12-17 17:46:58.890625
2223,12.01,2021-12-17 17:46:58.906250
2224,6.94,2021-12-17 17:46:58.921875
2225,3.15,2021-12-17 17:46:58.937500
2226,1.65,2021-12-17 17:46:58.953125
2227,3.03,2021-12-17 17:46:58.968750
2228,7.15,2021-12-17 17:46:58.984375
2229,13.11,2021-12-17 17:46:59.000000
2230,19.21,2021-12-17 17:46:59.015625
2231,23.62,2021-12-17 17:46:59.031250
2232,25.02,2021-12-17 17:46:59.046875
2233,23.29,2021-12-17 17:46:59.062500
2234,19.48,2021-12-17 17:46:59.078125
2235,15.29,2021-12-17 17:46:59.093750
2236,12.2,2021-12-17 17:46:59.109375
2237,10.82,2021-12-17 17:46:59.125000
2238,10.77,2021-12-17 17:46:59.140625
2239,11.12,2021-12-17 17:46:59.156250
2240,11.07,2021-12-17 17:46:59.171875
2241,10.36,2021-12-17 17:46:59.187500
2242,9.28,2021-12-17 17:46:59.203125
2243,8.28,2021-12-17 17:46:59.218750
2244,7.59,2021-12-17 17:46:59.234375
2245,7.0,2021-12-17 17:46:59.250000
2246,6.02,2021-12-17 17:46:59.265625
2247,4.33,2021-12-17 17:46:59.281250
2248,2.05,2021-12-17 17:46:59.296875
2249,-0.3,2021-12-17 17:46:59.312500
2250,-1.97,2021-12-17 17:46:59.328125
2251,-2.4,2021-12-17 17:46:59.343750
2252,-1.42,2021-12-17 17:46:59.359375
2253,0.92,2021-12-17 17:46:59.375000
2254,4.28,2021-12-17 17:46:59.390625
2255,8.28,2021-12-17 17:46:59.406250
2256,12.5,2021-12-17 17:46:59.421875
2257,16.49,2021-12-17 17:46:59.437500
2258,19.63,2021-12-17 17:46:59.453125
2259,21.38,2021-12-17 17:46:59.468750
2260,21.4,2021-12-17 17:46:59.484375
2261,19.7,2021-12-17 17:46:59.500000
2262,16.89,2021-12-17 17:46:59.515625
2263,13.86,2021-12-17 17:46:59.531250
2264,11.51,2021-12-17 17:46:59.546875
2265,10.35,2021-12-17 17:46:59.562500
2266,10.1,2021-12-17 17:46:59.578125
2267,9.65,2021-12-17 17:46:59.593750
2268,7.44,2021-12-17 17:46:59.609375
2269,2.37,2021-12-17 17:46:59.625000
2270,-5.89,2021-12-17 17:46:59.640625
2271,-16.55,2021-12-17 17:46:59.656250
2272,-28.22,2021-12-17 17:46:59.671875
2273,-39.55,2021-12-17 17:46:59.687500
2274,-49.63,2021-12-17 17:46:59.703125
2275,-58.13,2021-12-17 17:46:59.718750
2276,-65.02,2021-12-17 17:46:59.734375
2277,-70.17,2021-12-17 17:46:59.750000
2278,-73.19,2021-12-17 17:46:59.765625
2279,-73.77,2021-12-17 17:46:59.781250
2280,-71.75,2021-12-17 17:46:59.796875
2281,-67.43,2021-12-17 17:46:59.812500
2282,-61.32,2021-12-17 17:46:59.828125
2283,-53.88,2021-12-17 17:46:59.843750
2284,-45.3,2021-12-17 17:46:59.859375
2285,-35.61,2021-12-17 17:46:59.875000
2286,-24.91,2021-12-17 17:46:59.890625
2287,-13.61,2021-12-17 17:46:59.906250
2288,-2.62,2021-12-17 17:46:59.921875
2289,7.05,2021-12-17 17:46:59.937500
2290,14.59,2021-12-17 17:46:59.953125
2291,19.62,2021-12-17 17:46:59.968750
2292,22.32,2021-12-17 17:46:59.984375
2293,23.2,2021-12-17 17:47:00.000000
2294,22.84,2021-12-17 17:47:00.015625
2295,21.67,2021-12-17 17:47:00.031250
2296,19.84,2021-12-17 17:47:00.046875
2297,17.11,2021-12-17 17:47:00.062500
2298,13.21,2021-12-17 17:47:00.078125
2299,8.09,2021-12-17 17:47:00.093750
2300,2.09,2021-12-17 17:47:00.109375
2301,-3.95,2021-12-17 17:47:00.125000
2302,-8.94,2021-12-17 17:47:00.140625
2303,-12.07,2021-12-17 17:47:00.156250
2304,-13.01,2021-12-17 17:47:00.171875
2305,-12.08,2021-12-17 17:47:00.187500
2306,-10.11,2021-12-17 17:47:00.203125
2307,-7.82,2021-12-17 17:47:00.218750
2308,-5.56,2021-12-17 17:47:00.234375
2309,-3.28,2021-12-17 17:47:00.250000
2310,-0.71,2021-12-17 17:47:00.265625
2311,2.24,2021-12-17 17:47:00.281250
2312,5.13,2021-12-17 17:47:00.296875
2313,7.14,2021-12-17 17:47:00.312500
2314,7.39,2021-12-17 17:47:00.328125
2315,5.4,2021-12-17 17:47:00.343750
2316,1.46,2021-12-17 17:47:00.359375
2317,-3.59,2021-12-17 17:47:00.375000
2318,-8.61,2021-12-17 17:47:00.390625
2319,-12.63,2021-12-17 17:47:00.406250
2320,-15.12,2021-12-17 17:47:00.421875
2321,-15.98,2021-12-17 17:47:00.437500
2322,-15.26,2021-12-17 17:47:00.453125
2323,-13.07,2021-12-17 17:47:00.468750
2324,-9.45,2021-12-17 17:47:00.484375
2325,-4.55,2021-12-17 17:47:00.500000
2326,1.29,2021-12-17 17:47:00.515625
2327,7.33,2021-12-17 17:47:00.531250
2328,12.73,2021-12-17 17:47:00.546875
2329,16.68,2021-12-17 17:47:00.562500
2330,18.75,2021-12-17 17:47:00.578125
2331,19.1,2021-12-17 17:47:00.593750
2332,18.43,2021-12-17 17:47:00.609375
2333,17.67,2021-12-17 17:47:00.625000
2334,17.47,2021-12-17 17:47:00.640625
2335,18.0,2021-12-17 17:47:00.656250
2336,18.61,2021-12-17 17:47:00.671875
2337,18.39,2021-12-17 17:47:00.687500
2338,16.59,2021-12-17 17:47:00.703125
2339,13.1,2021-12-17 17:47:00.718750
2340,8.45,2021-12-17 17:47:00.734375
2341,3.54,2021-12-17 17:47:00.750000
2342,-0.95,2021-12-17 17:47:00.765625
2343,-4.97,2021-12-17 17:47:00.781250
2344,-8.93,2021-12-17 17:47:00.796875
2345,-13.47,2021-12-17 17:47:00.812500
2346,-18.94,2021-12-17 17:47:00.828125
2347,-25.23,2021-12-17 17:47:00.843750
2348,-31.84,2021-12-17 17:47:00.859375
2349,-38.16,2021-12-17 17:47:00.875000
2350,-43.77,2021-12-17 17:47:00.890625
2351,-48.55,2021-12-17 17:47:00.906250
2352,-52.66,2021-12-17 17:47:00.921875
2353,-56.31,2021-12-17 17:47:00.937500
2354,-59.77,2021-12-17 17:47:00.953125
2355,-63.2,2021-12-17 17:47:00.968750
2356,-66.51,2021-12-17 17:47:00.984375
2357,-69.14,2021-12-17 17:47:01.000000
2358,-69.92,2021-12-17 17:47:01.015625
2359,-67.37,2021-12-17 17:47:01.031250
2360,-60.1,2021-12-17 17:47:01.046875
2361,-47.42,2021-12-17 17:47:01.062500
2362,-29.59,2021-12-17 17:47:01.078125
2363,-7.83,2021-12-17 17:47:01.093750
2364,15.94,2021-12-17 17:47:01.109375
2365,39.56,2021-12-17 17:47:01.125000
2366,60.9,2021-12-17 17:47:01.140625
2367,78.18,2021-12-17 17:47:01.156250
2368,89.92,2021-12-17 17:47:01.171875
2369,95.17,2021-12-17 17:47:01.187500
2370,93.65,2021-12-17 17:47:01.203125
2371,86.05,2021-12-17 17:47:01.218750
2372,73.95,2021-12-17 17:47:01.234375
2373,59.58,2021-12-17 17:47:01.250000
2374,45.28,2021-12-17 17:47:01.265625
2375,33.01,2021-12-17 17:47:01.281250
2376,24.07,2021-12-17 17:47:01.296875
2377,18.95,2021-12-17 17:47:01.312500
2378,17.44,2021-12-17 17:47:01.328125
2379,18.93,2021-12-17 17:47:01.343750
2380,22.58,2021-12-17 17:47:01.359375
2381,27.39,2021-12-17 17:47:01.375000
2382,32.43,2021-12-17 17:47:01.390625
2383,36.94,2021-12-17 17:47:01.406250
2384,40.2,2021-12-17 17:47:01.421875
2385,41.84,2021-12-17 17:47:01.437500
2386,41.69,2021-12-17 17:47:01.453125
2387,39.87,2021-12-17 17:47:01.468750
2388,36.54,2021-12-17 17:47:01.484375
2389,31.74,2021-12-17 17:47:01.500000
2390,25.36,2021-12-17 17:47:01.515625
2391,17.28,2021-12-17 17:47:01.531250
2392,7.88,2021-12-17 17:47:01.546875
2393,-1.94,2021-12-17 17:47:01.562500
2394,-10.83,2021-12-17 17:47:01.578125
2395,-17.67,2021-12-17 17:47:01.593750
2396,-22.09,2021-12-17 17:47:01.609375
2397,-24.91,2021-12-17 17:47:01.625000
2398,-27.62,2021-12-17 17:47:01.640625
2399,-31.57,2021-12-17 17:47:01.656250
2400,-37.18,2021-12-17 17:47:01.671875
2401,-43.63,2021-12-17 17:47:01.687500
2402,-49.37,2021-12-17 17:47:01.703125
2403,-53.06,2021-12-17 17:47:01.718750
2404,-54.35,2021-12-17 17:47:01.734375
2405,-53.8,2021-12-17 17:47:01.750000
2406,-52.46,2021-12-17 17:47:01.765625
2407,-51.01,2021-12-17 17:47:01.781250
2408,-49.38,2021-12-17 17:47:01.796875
2409,-46.92,2021-12-17 17:47:01.812500
2410,-43.08,2021-12-17 17:47:01.828125
2411,-37.83,2021-12-17 17:47:01.843750
2412,-31.87,2021-12-17 17:47:01.859375
2413,-26.29,2021-12-17 17:47:01.875000
2414,-21.99,2021-12-17 17:47:01.890625
2415,-19.45,2021-12-17 17:47:01.906250
2416,-18.56,2021-12-17 17:47:01.921875
2417,-18.85,2021-12-17 17:47:01.937500
2418,-19.81,2021-12-17 17:47:01.953125
2419,-21.11,2021-12-17 17:47:01.968750
2420,-22.49,2021-12-17 17:47:01.984375
2421,-23.69,2021-12-17 17:47:02.000000
2422,-24.3,2021-12-17 17:47:02.015625
2423,-23.81,2021-12-17 17:47:02.031250
2424,-21.86,2021-12-17 17:47:02.046875
2425,-18.37,2021-12-17 17:47:02.062500
2426,-13.6,2021-12-17 17:47:02.078125
2427,-8.19,2021-12-17 17:47:02.093750
2428,-2.84,2021-12-17 17:47:02.109375
2429,1.83,2021-12-17 17:47:02.125000
2430,5.65,2021-12-17 17:47:02.140625
2431,8.81,2021-12-17 17:47:02.156250
2432,11.85,2021-12-17 17:47:02.171875
2433,15.25,2021-12-17 17:47:02.187500
2434,19.25,2021-12-17 17:47:02.203125
2435,23.6,2021-12-17 17:47:02.218750
2436,27.56,2021-12-17 17:47:02.234375
2437,30.15,2021-12-17 17:47:02.250000
2438,30.48,2021-12-17 17:47:02.265625
2439,28.3,2021-12-17 17:47:02.281250
2440,23.99,2021-12-17 17:47:02.296875
2441,18.71,2021-12-17 17:47:02.312500
2442,13.7,2021-12-17 17:47:02.328125
2443,10.03,2021-12-17 17:47:02.343750
2444,8.15,2021-12-17 17:47:02.359375
2445,7.83,2021-12-17 17:47:02.375000
2446,8.38,2021-12-17 17:47:02.390625
2447,9.08,2021-12-17 17:47:02.406250
2448,9.53,2021-12-17 17:47:02.421875
2449,9.73,2021-12-17 17:47:02.437500
2450,10.14,2021-12-17 17:47:02.453125
2451,11.24,2021-12-17 17:47:02.468750
2452,13.4,2021-12-17 17:47:02.484375
2453,16.61,2021-12-17 17:47:02.500000
2454,20.44,2021-12-17 17:47:02.515625
2455,24.18,2021-12-17 17:47:02.531250
2456,27.05,2021-12-17 17:47:02.546875
2457,28.46,2021-12-17 17:47:02.562500
2458,28.11,2021-12-17 17:47:02.578125
2459,26.14,2021-12-17 17:47:02.593750
2460,22.94,2021-12-17 17:47:02.609375
2461,19.02,2021-12-17 17:47:02.625000
2462,14.84,2021-12-17 17:47:02.640625
2463,10.73,2021-12-17 17:47:02.656250
2464,6.85,2021-12-17 17:47:02.671875
2465,3.29,2021-12-17 17:47:02.687500
2466,0.12,2021-12-17 17:47:02.703125
2467,-2.62,2021-12-17 17:47:02.718750
2468,-4.89,2021-12-17 17:47:02.734375
2469,-6.77,2021-12-17 17:47:02.750000
2470,-8.46,2021-12-17 17:47:02.765625
2471,-10.06,2021-12-17 17:47:02.781250
2472,-11.55,2021-12-17 17:47:02.796875
2473,-12.65,2021-12-17 17:47:02.812500
2474,-13.09,2021-12-17 17:47:02.828125
2475,-12.63,2021-12-17 17:47:02.843750
2476,-11.21,2021-12-17 17:47:02.859375
2477,-8.82,2021-12-17 17:47:02.875000
2478,-5.59,2021-12-17 17:47:02.890625
2479,-1.78,2021-12-17 17:47:02.906250
2480,2.18,2021-12-17 17:47:02.921875
2481,5.62,2021-12-17 17:47:02.937500
2482,7.82,2021-12-17 17:47:02.953125
2483,8.25,2021-12-17 17:47:02.968750
2484,7.05,2021-12-17 17:47:02.984375
2485,4.95,2021-12-17 17:47:03.000000
2486,3.12,2021-12-17 17:47:03.015625
2487,2.57,2021-12-17 17:47:03.031250
2488,3.63,2021-12-17 17:47:03.046875
2489,5.79,2021-12-17 17:47:03.062500
2490,7.99,2021-12-17 17:47:03.078125
2491,9.16,2021-12-17 17:47:03.093750
2492,8.77,2021-12-17 17:47:03.109375
2493,7.03,2021-12-17 17:47:03.125000
2494,4.68,2021-12-17 17:47:03.140625
2495,2.48,2021-12-17 17:47:03.156250
2496,0.85,2021-12-17 17:47:03.171875
2497,-0.29,2021-12-17 17:47:03.187500
2498,-1.35,2021-12-17 17:47:03.203125
2499,-2.74,2021-12-17 17:47:03.218750
2500,-4.57,2021-12-17 17:47:03.234375
2501,-6.56,2021-12-17 17:47:03.250000
2502,-8.31,2021-12-17 17:47:03.265625
2503,-9.54,2021-12-17 17:47:03.281250
2504,-10.28,2021-12-17 17:47:03.296875
2505,-10.75,2021-12-17 17:47:03.312500
2506,-11.32,2021-12-17 17:47:03.328125
2507,-12.14,2021-12-17 17:47:03.343750
2508,-13.08,2021-12-17 17:47:03.359375
2509,-13.85,2021-12-17 17:47:03.375000
2510,-14.13,2021-12-17 17:47:03.390625
2511,-13.79,2021-12-17 17:47:03.406250
2512,-13.0,2021-12-17 17:47:03.421875
2513,-11.98,2021-12-17 17:47:03.437500
2514,-10.98,2021-12-17 17:47:03.453125
2515,-10.27,2021-12-17 17:47:03.468750
2516,-9.92,2021-12-17 17:47:03.484375
2517,-10.0,2021-12-17 17:47:03.500000
2518,-10.6,2021-12-17 17:47:03.515625
2519,-11.66,2021-12-17 17:47:03.531250
2520,-13.05,2021-12-17 17:47:03.546875
2521,-14.53,2021-12-17 17:47:03.562500
2522,-15.76,2021-12-17 17:47:03.578125
2523,-16.49,2021-12-17 17:47:03.593750
2524,-16.77,2021-12-17 17:47:03.609375
2525,-16.79,2021-12-17 17:47:03.625000
2526,-17.03,2021-12-17 17:47:03.640625
2527,-17.97,2021-12-17 17:47:03.656250
2528,-19.76,2021-12-17 17:47:03.671875
2529,-22.1,2021-12-17 17:47:03.687500
2530,-24.16,2021-12-17 17:47:03.703125
2531,-24.8,2021-12-17 17:47:03.718750
2532,-23.02,2021-12-17 17:47:03.734375
2533,-18.42,2021-12-17 17:47:03.750000
2534,-11.56,2021-12-17 17:47:03.765625
2535,-3.87,2021-12-17 17:47:03.781250
2536,2.88,2021-12-17 17:47:03.796875
2537,7.4,2021-12-17 17:47:03.812500
2538,9.32,2021-12-17 17:47:03.828125
2539,9.28,2021-12-17 17:47:03.843750
2540,8.54,2021-12-17 17:47:03.859375
2541,8.32,2021-12-17 17:47:03.875000
2542,9.26,2021-12-17 17:47:03.890625
2543,11.26,2021-12-17 17:47:03.906250
2544,13.71,2021-12-17 17:47:03.921875
2545,15.89,2021-12-17 17:47:03.937500
2546,17.45,2021-12-17 17:47:03.953125
2547,18.29,2021-12-17 17:47:03.968750
2548,18.71,2021-12-17 17:47:03.984375
2549,19.03,2021-12-17 17:47:04.000000
2550,19.48,2021-12-17 17:47:04.015625
2551,19.96,2021-12-17 17:47:04.031250
2552,20.25,2021-12-17 17:47:04.046875
2553,19.91,2021-12-17 17:47:04.062500
2554,18.72,2021-12-17 17:47:04.078125
2555,16.77,2021-12-17 17:47:04.093750
2556,14.41,2021-12-17 17:47:04.109375
2557,12.27,2021-12-17 17:47:04.125000
2558,10.82,2021-12-17 17:47:04.140625
2559,10.11,2021-12-17 17:47:04.156250
2560,9.74,2021-12-17 17:47:04.171875
2561,9.1,2021-12-17 17:47:04.187500
2562,7.66,2021-12-17 17:47:04.203125
2563,5.34,2021-12-17 17:47:04.218750
2564,2.57,2021-12-17 17:47:04.234375
2565,-0.04,2021-12-17 17:47:04.250000
2566,-1.96,2021-12-17 17:47:04.265625
2567,-3.07,2021-12-17 17:47:04.281250
2568,-3.83,2021-12-17 17:47:04.296875
2569,-4.79,2021-12-17 17:47:04.312500
2570,-6.32,2021-12-17 17:47:04.328125
2571,-8.28,2021-12-17 17:47:04.343750
2572,-10.07,2021-12-17 17:47:04.359375
2573,-10.94,2021-12-17 17:47:04.375000
2574,-10.55,2021-12-17 17:47:04.390625
2575,-9.14,2021-12-17 17:47:04.406250
2576,-7.57,2021-12-17 17:47:04.421875
2577,-6.91,2021-12-17 17:47:04.437500
2578,-7.82,2021-12-17 17:47:04.453125
2579,-10.21,2021-12-17 17:47:04.468750
2580,-13.2,2021-12-17 17:47:04.484375
2581,-15.61,2021-12-17 17:47:04.500000
2582,-16.49,2021-12-17 17:47:04.515625
2583,-15.69,2021-12-17 17:47:04.531250
2584,-13.62,2021-12-17 17:47:04.546875
2585,-11.09,2021-12-17 17:47:04.562500
2586,-8.77,2021-12-17 17:47:04.578125
2587,-6.91,2021-12-17 17:47:04.593750
2588,-5.5,2021-12-17 17:47:04.609375
2589,-4.38,2021-12-17 17:47:04.625000
2590,-3.38,2021-12-17 17:47:04.640625
2591,-2.29,2021-12-17 17:47:04.656250
2592,-0.82,2021-12-17 17:47:04.671875
2593,1.55,2021-12-17 17:47:04.687500
2594,5.11,2021-12-17 17:47:04.703125
2595,9.69,2021-12-17 17:47:04.718750
2596,14.47,2021-12-17 17:47:04.734375
2597,18.23,2021-12-17 17:47:04.750000
2598,19.82,2021-12-17 17:47:04.765625
2599,18.84,2021-12-17 17:47:04.781250
2600,15.8,2021-12-17 17:47:04.796875
2601,11.86,2021-12-17 17:47:04.812500
2602,8.4,2021-12-17 17:47:04.828125
2603,6.33,2021-12-17 17:47:04.843750
2604,5.88,2021-12-17 17:47:04.859375
2605,6.83,2021-12-17 17:47:04.875000
2606,8.62,2021-12-17 17:47:04.890625
2607,10.62,2021-12-17 17:47:04.906250
2608,12.31,2021-12-17 17:47:04.921875
2609,13.29,2021-12-17 17:47:04.937500
2610,13.26,2021-12-17 17:47:04.953125
2611,12.26,2021-12-17 17:47:04.968750
2612,10.54,2021-12-17 17:47:04.984375
2613,8.63,2021-12-17 17:47:05.000000
2614,7.21,2021-12-17 17:47:05.015625
2615,6.71,2021-12-17 17:47:05.031250
2616,7.2,2021-12-17 17:47:05.046875
2617,8.37,2021-12-17 17:47:05.062500
2618,9.77,2021-12-17 17:47:05.078125
2619,11.1,2021-12-17 17:47:05.093750
2620,12.42,2021-12-17 17:47:05.109375
2621,14.04,2021-12-17 17:47:05.125000
2622,16.35,2021-12-17 17:47:05.140625
2623,19.45,2021-12-17 17:47:05.156250
2624,23.05,2021-12-17 17:47:05.171875
2625,26.5,2021-12-17 17:47:05.187500
2626,29.12,2021-12-17 17:47:05.203125
2627,30.44,2021-12-17 17:47:05.218750
2628,30.38,2021-12-17 17:47:05.234375
2629,29.09,2021-12-17 17:47:05.250000
2630,26.73,2021-12-17 17:47:05.265625
2631,23.29,2021-12-17 17:47:05.281250
2632,18.64,2021-12-17 17:47:05.296875
2633,12.66,2021-12-17 17:47:05.312500
2634,5.36,2021-12-17 17:47:05.328125
2635,-3.01,2021-12-17 17:47:05.343750
2636,-12.32,2021-12-17 17:47:05.359375
2637,-22.7,2021-12-17 17:47:05.375000
2638,-34.59,2021-12-17 17:47:05.390625
2639,-48.38,2021-12-17 17:47:05.406250
2640,-63.89,2021-12-17 17:47:05.421875
2641,-79.99,2021-12-17 17:47:05.437500
2642,-94.55,2021-12-17 17:47:05.453125
2643,-105.07,2021-12-17 17:47:05.468750
2644,-109.46,2021-12-17 17:47:05.484375
2645,-106.75,2021-12-17 17:47:05.500000
2646,-97.36,2021-12-17 17:47:05.515625
2647,-82.83,2021-12-17 17:47:05.531250
2648,-65.21,2021-12-17 17:47:05.546875
2649,-46.51,2021-12-17 17:47:05.562500
2650,-28.4,2021-12-17 17:47:05.578125
2651,-12.01,2021-12-17 17:47:05.593750
2652,1.86,2021-12-17 17:47:05.609375
2653,12.64,2021-12-17 17:47:05.625000
2654,20.06,2021-12-17 17:47:05.640625
2655,24.08,2021-12-17 17:47:05.656250
2656,25.04,2021-12-17 17:47:05.671875
2657,23.59,2021-12-17 17:47:05.687500
2658,20.74,2021-12-17 17:47:05.703125
2659,17.55,2021-12-17 17:47:05.718750
2660,15.24,2021-12-17 17:47:05.734375
2661,14.79,2021-12-17 17:47:05.750000
2662,16.7,2021-12-17 17:47:05.765625
2663,20.86,2021-12-17 17:47:05.781250
2664,26.53,2021-12-17 17:47:05.796875
2665,32.45,2021-12-17 17:47:05.812500
2666,37.3,2021-12-17 17:47:05.828125
2667,40.02,2021-12-17 17:47:05.843750
2668,40.1,2021-12-17 17:47:05.859375
2669,37.75,2021-12-17 17:47:05.875000
2670,33.77,2021-12-17 17:47:05.890625
2671,29.14,2021-12-17 17:47:05.906250
2672,24.77,2021-12-17 17:47:05.921875
2673,21.16,2021-12-17 17:47:05.937500
2674,18.44,2021-12-17 17:47:05.953125
2675,16.46,2021-12-17 17:47:05.968750
2676,15.06,2021-12-17 17:47:05.984375
2677,14.11,2021-12-17 17:47:06.000000
2678,13.46,2021-12-17 17:47:06.015625
2679,12.96,2021-12-17 17:47:06.031250
2680,12.31,2021-12-17 17:47:06.046875
2681,11.35,2021-12-17 17:47:06.062500
2682,9.92,2021-12-17 17:47:06.078125
2683,8.22,2021-12-17 17:47:06.093750
2684,6.63,2021-12-17 17:47:06.109375
2685,5.51,2021-12-17 17:47:06.125000
2686,5.0,2021-12-17 17:47:06.140625
2687,4.94,2021-12-17 17:47:06.156250
2688,5.01,2021-12-17 17:47:06.171875
2689,4.98,2021-12-17 17:47:06.187500
2690,4.96,2021-12-17 17:47:06.203125
2691,5.19,2021-12-17 17:47:06.218750
2692,5.82,2021-12-17 17:47:06.234375
2693,6.65,2021-12-17 17:47:06.250000
2694,7.0,2021-12-17 17:47:06.265625
2695,5.96,2021-12-17 17:47:06.281250
2696,3.04,2021-12-17 17:47:06.296875
2697,-1.56,2021-12-17 17:47:06.312500
2698,-6.85,2021-12-17 17:47:06.328125
2699,-11.47,2021-12-17 17:47:06.343750
2700,-14.39,2021-12-17 17:47:06.359375
2701,-15.3,2021-12-17 17:47:06.375000
2702,-14.72,2021-12-17 17:47:06.390625
2703,-13.52,2021-12-17 17:47:06.406250
2704,-12.55,2021-12-17 17:47:06.421875
2705,-12.06,2021-12-17 17:47:06.437500
2706,-11.8,2021-12-17 17:47:06.453125
2707,-11.26,2021-12-17 17:47:06.468750
2708,-10.09,2021-12-17 17:47:06.484375
2709,-8.38,2021-12-17 17:47:06.500000
2710,-6.66,2021-12-17 17:47:06.515625
2711,-5.68,2021-12-17 17:47:06.531250
2712,-5.92,2021-12-17 17:47:06.546875
2713,-7.62,2021-12-17 17:47:06.562500
2714,-10.46,2021-12-17 17:47:06.578125
2715,-13.82,2021-12-17 17:47:06.593750
2716,-16.89,2021-12-17 17:47:06.609375
2717,-18.86,2021-12-17 17:47:06.625000
2718,-19.27,2021-12-17 17:47:06.640625
2719,-18.01,2021-12-17 17:47:06.656250
2720,-15.4,2021-12-17 17:47:06.671875
2721,-12.0,2021-12-17 17:47:06.687500
2722,-8.52,2021-12-17 17:47:06.703125
2723,-5.44,2021-12-17 17:47:06.718750
2724,-3.17,2021-12-17 17:47:06.734375
2725,-1.83,2021-12-17 17:47:06.750000
2726,-1.32,2021-12-17 17:47:06.765625
2727,-1.32,2021-12-17 17:47:06.781250
2728,-1.23,2021-12-17 17:47:06.796875
2729,-0.29,2021-12-17 17:47:06.812500
2730,2.11,2021-12-17 17:47:06.828125
2731,6.15,2021-12-17 17:47:06.843750
2732,11.29,2021-12-17 17:47:06.859375
2733,16.35,2021-12-17 17:47:06.875000
2734,19.81,2021-12-17 17:47:06.890625
2735,20.65,2021-12-17 17:47:06.906250
2736,18.64,2021-12-17 17:47:06.921875
2737,14.63,2021-12-17 17:47:06.937500
2738,10.11,2021-12-17 17:47:06.953125
2739,6.45,2021-12-17 17:47:06.968750
2740,4.37,2021-12-17 17:47:06.984375
2741,3.71,2021-12-17 17:47:07.000000
2742,3.75,2021-12-17 17:47:07.015625
2743,3.73,2021-12-17 17:47:07.031250
2744,3.46,2021-12-17 17:47:07.046875
2745,3.01,2021-12-17 17:47:07.062500
2746,2.67,2021-12-17 17:47:07.078125
2747,2.48,2021-12-17 17:47:07.093750
2748,2.16,2021-12-17 17:47:07.109375
2749,1.37,2021-12-17 17:47:07.125000
2750,0.1,2021-12-17 17:47:07.140625
2751,-1.24,2021-12-17 17:47:07.156250
2752,-1.92,2021-12-17 17:47:07.171875
2753,-1.24,2021-12-17 17:47:07.187500
2754,0.92,2021-12-17 17:47:07.203125
2755,4.33,2021-12-17 17:47:07.218750
2756,8.42,2021-12-17 17:47:07.234375
2757,12.7,2021-12-17 17:47:07.250000
2758,16.86,2021-12-17 17:47:07.265625
2759,20.61,2021-12-17 17:47:07.281250
2760,23.67,2021-12-17 17:47:07.296875
2761,25.75,2021-12-17 17:47:07.312500
2762,26.77,2021-12-17 17:47:07.328125
2763,26.97,2021-12-17 17:47:07.343750
2764,26.92,2021-12-17 17:47:07.359375
2765,27.06,2021-12-17 17:47:07.375000
2766,27.45,2021-12-17 17:47:07.390625
2767,27.63,2021-12-17 17:47:07.406250
2768,26.9,2021-12-17 17:47:07.421875
2769,24.9,2021-12-17 17:47:07.437500
2770,21.91,2021-12-17 17:47:07.453125
2771,18.8,2021-12-17 17:47:07.468750
2772,16.59,2021-12-17 17:47:07.484375
2773,15.92,2021-12-17 17:47:07.500000
2774,16.84,2021-12-17 17:47:07.515625
2775,19.0,2021-12-17 17:47:07.531250
2776,22.08,2021-12-17 17:47:07.546875
2777,26.04,2021-12-17 17:47:07.562500
2778,31.1,2021-12-17 17:47:07.578125
2779,37.43,2021-12-17 17:47:07.593750
2780,44.95,2021-12-17 17:47:07.609375
2781,53.46,2021-12-17 17:47:07.625000
2782,62.89,2021-12-17 17:47:07.640625
2783,73.56,2021-12-17 17:47:07.656250
2784,85.9,2021-12-17 17:47:07.671875
2785,99.98,2021-12-17 17:47:07.687500
2786,114.99,2021-12-17 17:47:07.703125
2787,129.49,2021-12-17 17:47:07.718750
2788,142.03,2021-12-17 17:47:07.734375
2789,152.07,2021-12-17 17:47:07.750000
2790,160.28,2021-12-17 17:47:07.765625
2791,168.03,2021-12-17 17:47:07.781250
2792,176.35,2021-12-17 17:47:07.796875
2793,184.79,2021-12-17 17:47:07.812500
2794,191.12,2021-12-17 17:47:07.828125
2795,191.91,2021-12-17 17:47:07.843750
2796,183.71,2021-12-17 17:47:07.859375
2797,164.21,2021-12-17 17:47:07.875000
2798,132.95,2021-12-17 17:47:07.890625
2799,91.28,2021-12-17 17:47:07.906250
2800,41.9,2021-12-17 17:47:07.921875
2801,-11.48,2021-12-17 17:47:07.937500
2802,-64.72,2021-12-17 17:47:07.953125
2803,-113.73,2021-12-17 17:47:07.968750
2804,-154.83,2021-12-17 17:47:07.984375
2805,-185.57,2021-12-17 17:47:08.000000
2806,-205.22,2021-12-17 17:47:08.015625
2807,-215.12,2021-12-17 17:47:08.031250
2808,-218.43,2021-12-17 17:47:08.046875
2809,-218.9,2021-12-17 17:47:08.062500
2810,-218.85,2021-12-17 17:47:08.078125
2811,-217.95,2021-12-17 17:47:08.093750
2812,-212.86,2021-12-17 17:47:08.109375
2813,-199.14,2021-12-17 17:47:08.125000
2814,-174.63,2021-12-17 17:47:08.140625
2815,-141.86,2021-12-17 17:47:08.156250
2816,-108.7,2021-12-17 17:47:08.171875
2817,-86.29,2021-12-17 17:47:08.187500
2818,-85.22,2021-12-17 17:47:08.203125
2819,-111.33,2021-12-17 17:47:08.218750
2820,-164.13,2021-12-17 17:47:08.234375
2821,-237.31,2021-12-17 17:47:08.250000
2822,-321.75,2021-12-17 17:47:08.265625
2823,-409.07,2021-12-17 17:47:08.281250
2824,-492.85,2021-12-17 17:47:08.296875
2825,-568.09,2021-12-17 17:47:08.312500
2826,-629.44,2021-12-17 17:47:08.328125
2827,-670.02,2021-12-17 17:47:08.343750
2828,-682.07,2021-12-17 17:47:08.359375
2829,-659.98,2021-12-17 17:47:08.375000
2830,-603.08,2021-12-17 17:47:08.390625
2831,-517.37,2021-12-17 17:47:08.406250
2832,-414.52,2021-12-17 17:47:08.421875
2833,-307.74,2021-12-17 17:47:08.437500
2834,-207.32,2021-12-17 17:47:08.453125
2835,-118.1,2021-12-17 17:47:08.468750
2836,-39.68,2021-12-17 17:47:08.484375
2837,31.35,2021-12-17 17:47:08.500000
2838,97.77,2021-12-17 17:47:08.515625
2839,160.0,2021-12-17 17:47:08.531250
2840,215.93,2021-12-17 17:47:08.546875
2841,262.54,2021-12-17 17:47:08.562500
2842,298.34,2021-12-17 17:47:08.578125
2843,325.14,2021-12-17 17:47:08.593750
2844,347.05,2021-12-17 17:47:08.609375
2845,368.68,2021-12-17 17:47:08.625000
2846,393.54,2021-12-17 17:47:08.640625
2847,422.25,2021-12-17 17:47:08.656250
2848,451.4,2021-12-17 17:47:08.671875
2849,473.5,2021-12-17 17:47:08.687500
2850,478.69,2021-12-17 17:47:08.703125
2851,457.63,2021-12-17 17:47:08.718750
2852,407.25,2021-12-17 17:47:08.734375
2853,332.64,2021-12-17 17:47:08.750000
2854,246.32,2021-12-17 17:47:08.765625
2855,165.19,2021-12-17 17:47:08.781250
2856,104.28,2021-12-17 17:47:08.796875
2857,70.63,2021-12-17 17:47:08.812500
2858,60.41,2021-12-17 17:47:08.828125
2859,61.69,2021-12-17 17:47:08.843750
2860,59.77,2021-12-17 17:47:08.859375
2861,46.7,2021-12-17 17:47:08.875000
2862,23.23,2021-12-17 17:47:08.890625
2863,-3.45,2021-12-17 17:47:08.906250
2864,-22.43,2021-12-17 17:47:08.921875
2865,-23.46,2021-12-17 17:47:08.937500
2866,0.31,2021-12-17 17:47:08.953125
2867,51.54,2021-12-17 17:47:08.968750
2868,129.58,2021-12-17 17:47:08.984375
2869,229.9,2021-12-17 17:47:09.000000
2870,347.29,2021-12-17 17:47:09.015625
2871,473.46,2021-12-17 17:47:09.031250
2872,585.9,2021-12-17 17:47:09.046875
2873,657.0,2021-12-17 17:47:09.062500
2874,665.28,2021-12-17 17:47:09.078125
2875,606.36,2021-12-17 17:47:09.093750
2876,494.98,2021-12-17 17:47:09.109375
2877,367.98,2021-12-17 17:47:09.125000
2878,242.97,2021-12-17 17:47:09.140625
2879,128.14,2021-12-17 17:47:09.156250
2880,27.88,2021-12-17 17:47:09.171875
2881,-55.29,2021-12-17 17:47:09.187500
2882,-117.76,2021-12-17 17:47:09.203125
2883,-154.91,2021-12-17 17:47:09.218750
2884,-165.56,2021-12-17 17:47:09.234375
2885,-154.47,2021-12-17 17:47:09.250000
2886,-131.57,2021-12-17 17:47:09.265625
2887,-109.96,2021-12-17 17:47:09.281250
2888,-99.58,2021-12-17 17:47:09.296875
2889,-103.68,2021-12-17 17:47:09.312500
2890,-119.21,2021-12-17 17:47:09.328125
2891,-137.64,2021-12-17 17:47:09.343750
2892,-149.48,2021-12-17 17:47:09.359375
2893,-149.0,2021-12-17 17:47:09.375000
2894,-136.83,2021-12-17 17:47:09.390625
2895,-118.82,2021-12-17 17:47:09.406250
2896,-104.18,2021-12-17 17:47:09.421875
2897,-102.75,2021-12-17 17:47:09.437500
2898,-121.6,2021-12-17 17:47:09.453125
2899,-164.85,2021-12-17 17:47:09.468750
2900,-232.73,2021-12-17 17:47:09.484375
2901,-322.09,2021-12-17 17:47:09.500000
2902,-427.47,2021-12-17 17:47:09.515625
2903,-541.87,2021-12-17 17:47:09.531250
2904,-656.49,2021-12-17 17:47:09.546875
2905,-747.05,2021-12-17 17:47:09.562500
2906,-789.51,2021-12-17 17:47:09.578125
2907,-766.32,2021-12-17 17:47:09.593750
2908,-675.18,2021-12-17 17:47:09.609375
2909,-529.94,2021-12-17 17:47:09.625000
2910,-353.99,2021-12-17 17:47:09.640625
2911,-171.11,2021-12-17 17:47:09.656250
2912,0.07,2021-12-17 17:47:09.671875
2913,144.82,2021-12-17 17:47:09.687500
2914,264.94,2021-12-17 17:47:09.703125
2915,361.65,2021-12-17 17:47:09.718750
2916,434.89,2021-12-17 17:47:09.734375
2917,483.82,2021-12-17 17:47:09.750000
2918,508.31,2021-12-17 17:47:09.765625
2919,509.54,2021-12-17 17:47:09.781250
2920,489.77,2021-12-17 17:47:09.796875
2921,446.75,2021-12-17 17:47:09.812500
2922,381.82,2021-12-17 17:47:09.828125
2923,299.59,2021-12-17 17:47:09.843750
2924,204.62,2021-12-17 17:47:09.859375
2925,104.37,2021-12-17 17:47:09.875000
2926,8.58,2021-12-17 17:47:09.890625
2927,-72.41,2021-12-17 17:47:09.906250
2928,-130.58,2021-12-17 17:47:09.921875
2929,-162.62,2021-12-17 17:47:09.937500
2930,-171.23,2021-12-17 17:47:09.953125
2931,-163.48,2021-12-17 17:47:09.968750
2932,-148.7,2021-12-17 17:47:09.984375
2933,-138.61,2021-12-17 17:47:10.000000
2934,-142.47,2021-12-17 17:47:10.015625
2935,-165.27,2021-12-17 17:47:10.031250
2936,-206.8,2021-12-17 17:47:10.046875
2937,-262.7,2021-12-17 17:47:10.062500
2938,-326.01,2021-12-17 17:47:10.078125
2939,-389.24,2021-12-17 17:47:10.093750
2940,-444.78,2021-12-17 17:47:10.109375
2941,-485.31,2021-12-17 17:47:10.125000
2942,-505.56,2021-12-17 17:47:10.140625
2943,-501.4,2021-12-17 17:47:10.156250
2944,-470.54,2021-12-17 17:47:10.171875
2945,-413.88,2021-12-17 17:47:10.187500
2946,-336.6,2021-12-17 17:47:10.203125
2947,-247.53,2021-12-17 17:47:10.218750
2948,-157.61,2021-12-17 17:47:10.234375
2949,-76.57,2021-12-17 17:47:10.250000
2950,-10.74,2021-12-17 17:47:10.265625
2951,37.04,2021-12-17 17:47:10.281250
2952,67.83,2021-12-17 17:47:10.296875
2953,85.64,2021-12-17 17:47:10.312500
2954,96.24,2021-12-17 17:47:10.328125
2955,106.17,2021-12-17 17:47:10.343750
2956,121.58,2021-12-17 17:47:10.359375
2957,146.57,2021-12-17 17:47:10.375000
2958,182.44,2021-12-17 17:47:10.390625
2959,227.18,2021-12-17 17:47:10.406250
2960,275.93,2021-12-17 17:47:10.421875
2961,323.29,2021-12-17 17:47:10.437500
2962,364.95,2021-12-17 17:47:10.453125
2963,398.32,2021-12-17 17:47:10.468750
2964,422.24,2021-12-17 17:47:10.484375
2965,435.91,2021-12-17 17:47:10.500000
2966,438.39,2021-12-17 17:47:10.515625
2967,429.28,2021-12-17 17:47:10.531250
2968,410.0,2021-12-17 17:47:10.546875
2969,384.45,2021-12-17 17:47:10.562500
2970,358.61,2021-12-17 17:47:10.578125
2971,338.46,2021-12-17 17:47:10.593750
2972,327.06,2021-12-17 17:47:10.609375
2973,322.89,2021-12-17 17:47:10.625000
2974,319.95,2021-12-17 17:47:10.640625
2975,309.82,2021-12-17 17:47:10.656250
2976,285.39,2021-12-17 17:47:10.671875
2977,243.68,2021-12-17 17:47:10.687500
2978,186.53,2021-12-17 17:47:10.703125
2979,119.5,2021-12-17 17:47:10.718750
2980,49.0,2021-12-17 17:47:10.734375
2981,-20.36,2021-12-17 17:47:10.750000
2982,-86.79,2021-12-17 17:47:10.765625
2983,-150.52,2021-12-17 17:47:10.781250
2984,-212.33,2021-12-17 17:47:10.796875
2985,-271.84,2021-12-17 17:47:10.812500
2986,-327.01,2021-12-17 17:47:10.828125
2987,-374.51,2021-12-17 17:47:10.843750
2988,-410.4,2021-12-17 17:47:10.859375
2989,-431.12,2021-12-17 17:47:10.875000
2990,-433.85,2021-12-17 17:47:10.890625
2991,-416.52,2021-12-17 17:47:10.906250
2992,-378.08,2021-12-17 17:47:10.921875
2993,-318.97,2021-12-17 17:47:10.937500
2994,-241.81,2021-12-17 17:47:10.953125
2995,-151.82,2021-12-17 17:47:10.968750
2996,-56.51,2021-12-17 17:47:10.984375
2997,35.63,2021-12-17 17:47:11.000000
2998,116.52,2021-12-17 17:47:11.015625
2999,180.01,2021-12-17 17:47:11.031250
3000,222.92,2021-12-17 17:47:11.046875
3001,245.35,2021-12-17 17:47:11.062500
3002,250.09,2021-12-17 17:47:11.078125
3003,241.58,2021-12-17 17:47:11.093750
3004,224.69,2021-12-17 17:47:11.109375
3005,203.54,2021-12-17 17:47:11.125000
3006,181.12,2021-12-17 17:47:11.140625
3007,159.21,2021-12-17 17:47:11.156250
3008,138.94,2021-12-17 17:47:11.171875
3009,121.16,2021-12-17 17:47:11.187500
3010,106.61,2021-12-17 17:47:11.203125
3011,95.71,2021-12-17 17:47:11.218750
3012,88.48,2021-12-17 17:47:11.234375
3013,84.78,2021-12-17 17:47:11.250000
3014,84.51,2021-12-17 17:47:11.265625
3015,87.62,2021-12-17 17:47:11.281250
3016,93.75,2021-12-17 17:47:11.296875
3017,101.65,2021-12-17 17:47:11.312500
3018,108.95,2021-12-17 17:47:11.328125
3019,112.82,2021-12-17 17:47:11.343750
3020,110.84,2021-12-17 17:47:11.359375
3021,102.09,2021-12-17 17:47:11.375000
3022,87.59,2021-12-17 17:47:11.390625
3023,69.67,2021-12-17 17:47:11.406250
3024,50.79,2021-12-17 17:47:11.421875
3025,32.45,2021-12-17 17:47:11.437500
3026,14.72,2021-12-17 17:47:11.453125
3027,-3.4,2021-12-17 17:47:11.468750
3028,-23.12,2021-12-17 17:47:11.484375
3029,-45.3,2021-12-17 17:47:11.500000
3030,-70.01,2021-12-17 17:47:11.515625
3031,-96.63,2021-12-17 17:47:11.531250
3032,-123.89,2021-12-17 17:47:11.546875
3033,-150.09,2021-12-17 17:47:11.562500
3034,-173.06,2021-12-17 17:47:11.578125
3035,-190.55,2021-12-17 17:47:11.593750
3036,-200.64,2021-12-17 17:47:11.609375
3037,-202.45,2021-12-17 17:47:11.625000
3038,-196.66,2021-12-17 17:47:11.640625
3039,-185.6,2021-12-17 17:47:11.656250
3040,-172.75,2021-12-17 17:47:11.671875
3041,-161.74,2021-12-17 17:47:11.687500
3042,-155.15,2021-12-17 17:47:11.703125
3043,-153.65,2021-12-17 17:47:11.718750
3044,-156.13,2021-12-17 17:47:11.734375
3045,-160.35,2021-12-17 17:47:11.750000
3046,-163.66,2021-12-17 17:47:11.765625
3047,-163.73,2021-12-17 17:47:11.781250
3048,-158.75,2021-12-17 17:47:11.796875
3049,-147.15,2021-12-17 17:47:11.812500
3050,-127.45,2021-12-17 17:47:11.828125
3051,-98.39,2021-12-17 17:47:11.843750
3052,-59.55,2021-12-17 17:47:11.859375
3053,-12.25,2021-12-17 17:47:11.875000
3054,39.89,2021-12-17 17:47:11.890625
3055,91.69,2021-12-17 17:47:11.906250
3056,137.47,2021-12-17 17:47:11.921875
3057,172.64,2021-12-17 17:47:11.937500
3058,194.7,2021-12-17 17:47:11.953125
3059,203.52,2021-12-17 17:47:11.968750
3060,200.66,2021-12-17 17:47:11.984375
3061,188.45,2021-12-17 17:47:12.000000
3062,169.33,2021-12-17 17:47:12.015625
3063,145.42,2021-12-17 17:47:12.031250
3064,118.84,2021-12-17 17:47:12.046875
3065,91.88,2021-12-17 17:47:12.062500
3066,66.9,2021-12-17 17:47:12.078125
3067,45.9,2021-12-17 17:47:12.093750
3068,30.03,2021-12-17 17:47:12.109375
3069,19.07,2021-12-17 17:47:12.125000
3070,11.77,2021-12-17 17:47:12.140625
3071,6.41,2021-12-17 17:47:12.156250
3072,1.56,2021-12-17 17:47:12.171875
3073,-3.45,2021-12-17 17:47:12.187500
3074,-8.46,2021-12-17 17:47:12.203125
3075,-12.81,2021-12-17 17:47:12.218750
3076,-15.7,2021-12-17 17:47:12.234375
3077,-16.5,2021-12-17 17:47:12.250000
3078,-14.76,2021-12-17 17:47:12.265625
3079,-10.22,2021-12-17 17:47:12.281250
3080,-2.87,2021-12-17 17:47:12.296875
3081,6.88,2021-12-17 17:47:12.312500
3082,18.04,2021-12-17 17:47:12.328125
3083,29.03,2021-12-17 17:47:12.343750
3084,37.98,2021-12-17 17:47:12.359375
3085,43.39,2021-12-17 17:47:12.375000
3086,44.48,2021-12-17 17:47:12.390625
3087,41.46,2021-12-17 17:47:12.406250
3088,35.34,2021-12-17 17:47:12.421875
3089,27.37,2021-12-17 17:47:12.437500
3090,18.45,2021-12-17 17:47:12.453125
3091,8.98,2021-12-17 17:47:12.468750
3092,-1.23,2021-12-17 17:47:12.484375
3093,-12.53,2021-12-17 17:47:12.500000
3094,-24.79,2021-12-17 17:47:12.515625
3095,-37.08,2021-12-17 17:47:12.531250
3096,-47.66,2021-12-17 17:47:12.546875
3097,-54.51,2021-12-17 17:47:12.562500
3098,-56.09,2021-12-17 17:47:12.578125
3099,-52.2,2021-12-17 17:47:12.593750
3100,-44.02,2021-12-17 17:47:12.609375
3101,-33.6,2021-12-17 17:47:12.625000
3102,-23.11,2021-12-17 17:47:12.640625
3103,-13.8,2021-12-17 17:47:12.656250
3104,-5.96,2021-12-17 17:47:12.671875
3105,0.85,2021-12-17 17:47:12.687500
3106,7.11,2021-12-17 17:47:12.703125
3107,12.64,2021-12-17 17:47:12.718750
3108,16.63,2021-12-17 17:47:12.734375
3109,17.95,2021-12-17 17:47:12.750000
3110,16.04,2021-12-17 17:47:12.765625
3111,11.15,2021-12-17 17:47:12.781250
3112,4.43,2021-12-17 17:47:12.796875
3113,-2.64,2021-12-17 17:47:12.812500
3114,-8.82,2021-12-17 17:47:12.828125
3115,-13.44,2021-12-17 17:47:12.843750
3116,-16.5,2021-12-17 17:47:12.859375
3117,-18.4,2021-12-17 17:47:12.875000
3118,-19.62,2021-12-17 17:47:12.890625
3119,-20.35,2021-12-17 17:47:12.906250
3120,-20.53,2021-12-17 17:47:12.921875
3121,-19.81,2021-12-17 17:47:12.937500
3122,-17.81,2021-12-17 17:47:12.953125
3123,-14.23,2021-12-17 17:47:12.968750
3124,-8.98,2021-12-17 17:47:12.984375
3125,-2.44,2021-12-17 17:47:13.000000
3126,4.75,2021-12-17 17:47:13.015625
3127,11.71,2021-12-17 17:47:13.031250
3128,17.73,2021-12-17 17:47:13.046875
3129,22.16,2021-12-17 17:47:13.062500
3130,24.66,2021-12-17 17:47:13.078125
3131,25.15,2021-12-17 17:47:13.093750
3132,23.74,2021-12-17 17:47:13.109375
3133,20.83,2021-12-17 17:47:13.125000
3134,17.12,2021-12-17 17:47:13.140625
3135,13.61,2021-12-17 17:47:13.156250
3136,11.34,2021-12-17 17:47:13.171875
3137,11.02,2021-12-17 17:47:13.187500
3138,12.59,2021-12-17 17:47:13.203125
3139,15.12,2021-12-17 17:47:13.218750
3140,17.15,2021-12-17 17:47:13.234375
3141,17.19,2021-12-17 17:47:13.250000
