1539435325.00
64.000000
-0.00
-0.00
-0.00
-0.00
-0.00
-0.00
-0.00
-0.00
-0.00
-0.01
-0.00
0.00
0.01
0.01
-0.00
-0.03
-0.05
-0.05
-0.00
0.13
0.36
0.66
1.01
1.37
1.72
2.06
2.41
2.78
3.24
3.79
4.42
5.09
5.75
6.37
6.95
7.52
8.10
8.84
9.72
10.73
11.80
12.83
13.79
14.70
15.70
16.89
18.61
20.88
23.60
26.57
29.52
32.29
34.94
37.70
40.81
44.94
50.11
56.19
62.80
69.44
75.80
81.84
87.88
94.29
101.96
111.04
121.39
132.52
143.79
154.68
165.03
176.10
185.70
195.80
207.25
221.25
238.43
258.03
277.25
291.44
295.35
284.80
259.01
220.02
172.37
121.14
70.18
21.28
-25.54
-70.96
-115.69
-159.61
-202.92
-245.78
-288.01
-328.36
-364.03
-391.06
-405.70
-406.00
-392.59
-368.99
-339.88
-309.71
-281.43
-256.16
-233.66
-213.22
-194.33
-176.64
-160.07
-144.39
-129.29
-114.58
-100.27
-86.68
-74.26
-63.34
-53.91
-45.64
-37.98
-30.48
-22.91
-15.38
-8.25
-1.97
3.13
7.00
9.83
12.05
14.08
16.22
18.56
20.94
23.08
24.65
25.47
25.58
25.21
24.71
24.38
24.39
24.67
25.00
25.13
24.88
24.23
23.31
22.30
21.31
20.37
19.45
18.53
17.67
16.93
16.36
15.93
15.50
14.96
14.27
13.54
12.96
12.64
12.54
12.50
12.27
11.74
10.96
10.14
9.50
9.16
9.11
9.24
9.41
9.56
9.67
9.76
9.78
9.67
9.38
8.91
8.38
7.94
7.69
7.64
7.70
7.74
7.66
7.45
7.16
6.81
6.41
5.92
5.34
4.75
4.28
4.06
4.14
4.44
4.77
4.91
4.73
4.21
3.50
2.80
2.31
2.14
2.28
2.60
2.92
3.05
2.94
2.57
2.04
1.44
0.84
0.25
-0.32
-0.85
-1.30
-1.63
-1.81
-1.89
-1.94
-2.06
-2.31
-2.67
-3.10
-3.51
-3.86
-4.12
-4.27
-4.29
-4.17
-3.90
-3.54
-3.15
-2.80
-2.51
-2.22
-1.84
-1.31
-0.67
-0.03
0.50
0.81
0.91
0.88
0.83
0.83
0.90
1.05
1.25
1.48
1.73
1.92
1.99
1.89
1.66
1.41
1.30
1.42
1.78
2.28
2.72
2.97
2.96
2.73
2.40
2.06
1.79
1.61
1.51
1.49
1.56
1.71
1.89
2.06
2.22
2.35
2.48
2.64
2.81
2.91
2.87
2.67
2.33
1.95
1.61
1.41
1.38
1.52
1.79
2.13
2.46
2.71
2.81
2.75
2.58
2.37
2.19
2.09
2.03
1.98
1.92
1.88
1.88
1.90
1.92
1.86
1.72
1.51
1.30
1.18
1.17
1.25
1.37
1.48
1.53
1.53
1.51
1.50
1.56
1.74
2.02
2.36
2.63
2.73
2.59
2.22
1.73
1.25
0.89
0.69
0.65
0.74
0.92
1.14
1.33
1.40
1.29
1.00
0.64
0.31
0.09
0.03
0.06
0.15
0.24
0.36
0.50
0.65
0.74
0.71
0.53
0.26
-0.01
-0.17
-0.19
-0.12
-0.02
0.08
0.19
0.36
0.61
0.92
1.19
1.34
1.31
1.15
0.93
0.75
0.69
0.74
0.87
1.01
1.13
1.18
1.18
1.12
0.98
0.78
0.52
0.22
-0.05
-0.25
-0.36
-0.39
-0.35
-0.29
-0.21
-0.10
0.07
0.31
0.58
0.80
0.91
0.88
0.74
0.61
0.59
0.74
1.02
1.33
1.55
1.58
1.43
1.14
0.77
0.43
0.17
0.07
0.15
0.41
0.75
1.02
1.08
0.86
0.44
-0.01
-0.29
-0.27
0.03
0.46
0.83
1.00
0.93
0.71
0.49
0.36
0.36
0.45
0.54
0.55
0.46
0.30
0.10
-0.08
-0.21
-0.31
-0.39
-0.48
-0.58
-0.64
-0.63
-0.50
-0.26
0.03
0.27
0.38
0.36
0.26
0.19
0.22
0.36
0.55
0.70
0.74
0.69
0.60
0.55
0.57
0.66
0.78
0.92
1.06
1.22
1.35
1.39
1.30
1.06
0.75
0.44
0.19
0.01
-0.13
-0.25
-0.35
-0.42
-0.45
-0.49
-0.58
-0.75
-0.93
-1.01
-0.87
-0.44
0.19
0.85
1.31
1.42
1.20
0.75
0.28
-0.08
-0.26
-0.31
-0.33
-0.38
-0.44
-0.42
-0.25
0.07
0.43
0.72
0.83
0.78
0.67
0.59
0.60
0.67
0.69
0.58
0.32
-0.02
-0.29
-0.39
-0.28
-0.01
0.28
0.48
0.54
0.50
0.45
0.48
0.60
0.72
0.73
0.54
0.15
-0.34
-0.77
-1.02
-1.06
-0.93
-0.74
-0.57
-0.45
-0.35
-0.23
-0.07
0.12
0.32
0.52
0.68
0.77
0.75
0.59
0.31
-0.04
-0.35
-0.54
-0.55
-0.42
-0.22
-0.05
0.01
-0.04
-0.15
-0.20
-0.10
0.20
0.63
1.04
1.27
1.21
0.88
0.42
0.02
-0.19
-0.17
0.03
0.30
0.52
0.66
0.70
0.63
0.48
0.25
0.02
-0.17
-0.25
-0.23
-0.16
-0.11
-0.14
-0.27
-0.45
-0.59
-0.60
-0.44
-0.12
0.27
0.63
0.86
0.93
0.85
0.67
0.47
0.29
0.16
0.07
0.02
0.02
0.06
0.16
0.28
0.38
0.42
0.35
0.22
0.06
-0.08
-0.14
-0.13
-0.06
0.01
0.04
-0.00
-0.14
-0.34
-0.53
-0.63
-0.58
-0.37
-0.09
0.18
0.32
0.30
0.14
-0.06
-0.19
-0.21
-0.11
0.04
0.18
0.26
0.25
0.16
-0.01
-0.25
-0.54
-0.83
-1.04
-1.09
-0.93
-0.61
-0.22
0.12
0.33
0.42
0.47
0.52
0.58
0.59
0.49
0.26
-0.02
-0.23
-0.29
-0.20
-0.05
0.04
0.05
0.03
0.09
0.30
0.61
0.94
1.12
1.07
0.82
0.46
0.12
-0.09
-0.15
-0.06
0.12
0.34
0.50
0.55
0.42
0.13
-0.23
-0.55
-0.69
-0.59
-0.27
0.16
0.60
0.94
1.14
1.21
1.15
0.98
0.74
0.48
0.27
0.18
0.21
0.32
0.43
0.45
0.33
0.10
-0.18
-0.41
-0.53
-0.52
-0.43
-0.29
-0.19
-0.13
-0.11
-0.12
-0.13
-0.15
-0.23
-0.39
-0.62
-0.85
-1.01
-1.01
-0.84
-0.57
-0.29
-0.08
0.06
0.15
0.24
0.34
0.39
0.33
0.13
-0.19
-0.50
-0.67
-0.60
-0.33
0.05
0.38
0.54
0.53
0.42
0.30
0.20
0.10
-0.05
-0.26
-0.47
-0.57
-0.50
-0.29
-0.05
0.10
0.13
0.10
0.11
0.25
0.50
0.75
0.88
0.79
0.49
0.08
-0.34
-0.64
-0.75
-0.67
-0.45
-0.16
0.09
0.23
0.23
0.12
-0.03
-0.14
-0.16
-0.05
0.16
0.41
0.59
0.62
0.45
0.12
-0.27
-0.60
-0.78
-0.79
-0.66
-0.47
-0.27
-0.07
0.12
0.28
0.39
0.41
0.32
0.17
0.00
-0.11
-0.15
-0.13
-0.08
-0.02
0.03
0.08
0.15
0.23
0.33
0.41
0.51
0.60
0.71
0.80
0.82
0.71
0.47
0.13
-0.21
-0.45
-0.51
-0.38
-0.13
0.17
0.43
0.63
0.72
0.71
0.62
0.42
0.16
-0.13
-0.39
-0.55
-0.57
-0.47
-0.34
-0.27
-0.32
-0.48
-0.67
-0.75
-0.62
-0.30
0.12
0.45
0.57
0.44
0.14
-0.19
-0.44
-0.54
-0.54
-0.48
-0.39
-0.29
-0.15
0.04
0.23
0.33
0.27
0.03
-0.30
-0.57
-0.62
-0.41
-0.02
0.39
0.65
0.67
0.49
0.26
0.10
0.09
0.19
0.30
0.34
0.24
0.01
-0.28
-0.54
-0.70
-0.68
-0.46
-0.09
0.33
0.70
0.92
0.95
0.82
0.60
0.32
-0.01
-0.38
-0.78
-1.10
-1.26
-1.17
-0.86
-0.42
-0.01
0.27
0.39
0.39
0.34
0.28
0.21
0.12
-0.00
-0.09
-0.09
-0.00
0.13
0.22
0.22
0.14
0.05
0.03
0.12
0.24
0.32
0.26
0.09
-0.11
-0.23
-0.17
0.08
0.46
0.83
1.07
1.11
0.91
0.54
0.11
-0.28
-0.55
-0.67
-0.67
-0.60
-0.48
-0.34
-0.21
-0.09
-0.03
-0.08
-0.23
-0.43
-0.59
-0.60
-0.40
0.00
0.51
0.97
1.27
1.31
1.09
0.70
0.28
-0.02
-0.09
0.07
0.38
0.68
0.82
0.73
0.44
0.07
-0.23
-0.35
-0.28
-0.07
0.20
0.43
0.55
0.52
0.33
0.02
-0.33
-0.60
-0.70
-0.61
-0.40
-0.20
-0.13
-0.26
-0.53
-0.79
-0.94
-0.90
-0.74
-0.55
-0.44
-0.43
-0.46
-0.46
-0.37
-0.22
-0.08
-0.02
-0.04
-0.11
-0.14
-0.09
0.03
0.18
0.29
0.31
0.25
0.13
-0.03
-0.19
-0.29
-0.30
-0.20
-0.02
0.20
0.41
0.59
0.73
0.81
0.82
0.72
0.51
0.26
0.04
-0.10
-0.13
-0.11
-0.10
-0.12
-0.16
-0.13
-0.04
0.10
0.20
0.18
0.02
-0.24
-0.51
-0.70
-0.77
-0.72
-0.55
-0.32
-0.06
0.15
0.28
0.32
0.31
0.30
0.33
0.40
0.47
0.47
0.36
0.14
-0.13
-0.40
-0.61
-0.73
-0.73
-0.61
-0.39
-0.10
0.18
0.40
0.51
0.53
0.52
0.54
0.59
0.63
0.62
0.51
0.33
0.16
0.04
-0.00
-0.01
0.00
0.01
0.04
0.13
0.26
0.38
0.41
0.32
0.12
-0.10
-0.25
-0.28
-0.24
-0.21
-0.29
-0.47
-0.69
-0.85
-0.88
-0.75
-0.54
-0.30
-0.07
0.13
0.34
0.55
0.70
0.73
0.58
0.29
-0.04
-0.29
-0.36
-0.24
-0.02
0.17
0.24
0.17
0.02
-0.14
-0.24
-0.29
-0.30
-0.29
-0.26
-0.19
-0.06
0.11
0.28
0.41
0.44
0.40
0.31
0.23
0.20
0.21
0.21
0.15
-0.02
-0.29
-0.59
-0.80
-0.83
-0.65
-0.30
0.07
0.34
0.42
0.34
0.16
-0.02
-0.13
-0.15
-0.12
-0.08
-0.05
-0.03
-0.02
-0.01
0.01
0.01
-0.03
-0.12
-0.25
-0.38
-0.46
-0.45
-0.34
-0.17
0.00
0.12
0.14
0.07
-0.09
-0.31
-0.55
-0.71
-0.73
-0.57
-0.23
0.20
0.60
0.86
0.93
0.86
0.73
0.62
0.54
0.47
0.33
0.11
-0.16
-0.40
-0.51
-0.42
-0.15
0.26
0.66
0.92
0.98
0.82
0.54
0.27
0.13
0.16
0.29
0.40
0.42
0.34
0.24
0.18
0.22
0.32
0.40
0.41
0.32
0.17
0.01
-0.15
-0.30
-0.41
-0.48
-0.48
-0.41
-0.32
-0.27
-0.29
-0.38
-0.47
-0.47
-0.35
-0.17
-0.02
0.01
-0.13
-0.38
-0.60
-0.68
-0.57
-0.33
-0.04
0.18
0.27
0.26
0.18
0.11
0.09
0.13
0.21
0.27
0.30
0.27
0.19
0.10
0.02
-0.01
-0.01
0.01
0.00
-0.05
-0.12
-0.14
-0.09
0.03
0.13
0.10
-0.08
-0.38
-0.65
-0.73
-0.55
-0.19
0.21
0.46
0.46
0.25
-0.05
-0.28
-0.34
-0.22
-0.01
0.16
0.18
0.02
-0.27
-0.60
-0.84
-0.92
-0.83
-0.63
-0.40
-0.20
-0.06
0.06
0.17
0.24
0.26
0.16
-0.02
-0.22
-0.34
-0.31
-0.13
0.14
0.39
0.57
0.67
0.74
0.81
0.89
0.93
0.89
0.79
0.69
0.67
0.79
0.98
1.13
1.09
0.79
0.29
-0.28
-0.75
-0.99
-0.98
-0.81
-0.57
-0.36
-0.23
-0.17
-0.17
-0.21
-0.29
-0.41
-0.53
-0.61
-0.61
-0.50
-0.31
-0.12
0.02
0.08
0.10
0.12
0.20
0.33
0.44
0.47
0.38
0.18
-0.06
-0.27
-0.40
-0.42
-0.33
-0.19
-0.02
0.09
0.11
0.03
-0.12
-0.27
-0.35
-0.32
-0.19
-0.02
0.13
0.19
0.16
0.06
-0.04
-0.10
-0.05
0.12
0.37
0.61
0.77
0.78
0.64
0.44
0.30
0.28
0.38
0.50
0.53
0.41
0.19
-0.03
-0.13
-0.11
-0.03
-0.01
-0.13
-0.38
-0.64
-0.78
-0.72
-0.47
-0.14
0.14
0.26
0.16
-0.11
-0.47
-0.78
-0.94
-0.88
-0.62
-0.26
0.10
0.35
0.45
0.41
0.21
-0.11
-0.53
-0.95
-1.20
-1.13
-0.70
-0.04
0.58
0.88
0.70
0.13
-0.61
-1.24
-1.59
-1.68
-1.64
-1.63
-1.70
-1.81
-1.90
-1.90
-1.84
-1.79
-1.82
-1.97
-2.21
-2.50
-2.77
-3.01
-3.22
-3.46
-3.79
-4.22
-4.72
-5.23
-5.66
-5.99
-6.27
-6.61
-7.12
-7.81
-8.56
-9.14
-9.33
-8.99
-8.18
-7.10
-6.04
-5.22
-4.71
-4.43
-4.13
-3.55
-2.49
-0.92
0.96
2.82
4.27
5.14
5.49
5.68
6.15
7.24
9.07
11.51
14.31
17.20
19.90
22.07
23.29
23.17
21.55
18.65
15.07
11.55
8.67
6.55
4.90
3.28
1.43
-0.58
-2.40
-3.64
-4.16
-4.11
-3.81
-3.57
-3.49
-3.48
-3.39
-3.14
-2.73
-2.31
-2.00
-1.85
-1.86
-1.93
-1.99
-1.96
-1.81
-1.55
-1.25
-0.98
-0.83
-0.85
-1.00
-1.17
-1.22
-1.09
-0.80
-0.46
-0.18
-0.02
0.07
0.15
0.26
0.39
0.49
0.53
0.55
0.61
0.74
0.93
1.10
1.18
1.18
1.17
1.29
1.62
2.16
2.80
3.39
3.78
3.92
3.85
3.64
3.42
3.30
3.36
3.62
4.04
4.48
4.82
4.96
4.78
4.23
3.25
1.85
0.12
-1.70
-3.29
-4.35
-4.75
-4.59
-4.14
-3.68
-3.33
-3.06
-2.69
-2.15
-1.55
-1.07
-0.91
-1.07
-1.36
-1.52
-1.42
-1.08
-0.70
-0.48
-0.50
-0.66
-0.78
-0.74
-0.56
-0.34
-0.21
-0.20
-0.21
-0.09
0.24
0.73
1.18
1.38
1.19
0.65
-0.06
-0.74
-1.27
-1.63
-1.90
-2.14
-2.37
-2.55
-2.65
-2.71
-2.86
-3.16
-3.56
-3.77
-3.44
-2.27
-0.27
2.22
4.62
6.40
7.26
7.31
6.89
6.35
5.92
5.55
5.11
4.47
3.63
2.77
2.10
1.78
1.82
2.11
2.50
2.80
2.88
2.64
2.03
1.03
-0.30
-1.80
-3.26
-4.46
-5.25
-5.59
-5.55
-5.24
-4.79
-4.24
-3.62
-2.95
-2.33
-1.88
-1.69
-1.77
-1.96
-2.07
-1.92
-1.51
-0.97
-0.53
-0.38
-0.59
-1.10
-1.72
-2.28
-2.63
-2.74
-2.63
-2.39
-2.10
-1.82
-1.60
-1.43
-1.35
-1.34
-1.40
-1.49
-1.55
-1.51
-1.31
-0.99
-0.64
-0.41
-0.44
-0.73
-1.17
-1.57
-1.76
-1.65
-1.29
-0.84
-0.43
-0.17
-0.06
-0.06
-0.10
-0.12
-0.14
-0.16
-0.19
-0.21
-0.16
-0.04
0.13
0.29
0.34
0.26
0.06
-0.17
-0.31
-0.29
-0.10
0.21
0.54
0.79
0.87
0.76
0.49
0.12
-0.23
-0.47
-0.54
-0.44
-0.25
-0.07
0.02
0.00
-0.07
-0.15
-0.21
-0.27
-0.36
-0.48
-0.57
-0.55
-0.38
-0.11
0.16
0.31
0.30
0.19
0.09
0.07
0.12
0.14
0.08
-0.10
-0.29
-0.38
-0.30
-0.09
0.15
0.25
0.15
-0.12
-0.44
-0.69
-0.78
-0.74
-0.60
-0.43
-0.26
-0.07
0.14
0.33
0.42
0.33
0.02
-0.42
-0.82
-1.02
-0.91
-0.55
-0.10
0.25
0.40
0.38
0.30
0.26
0.28
0.28
0.16
-0.09
-0.41
-0.66
-0.73
-0.57
-0.28
0.03
0.26
0.38
0.43
0.49
0.60
0.74
0.83
0.82
0.67
0.40
0.07
-0.20
-0.34
-0.33
-0.19
-0.01
0.12
0.13
0.02
-0.18
-0.37
-0.48
-0.47
-0.34
-0.12
0.13
0.36
0.55
0.64
0.65
0.59
0.48
0.37
0.28
0.20
0.11
0.03
-0.03
0.00
0.13
0.32
0.48
0.48
0.30
-0.04
-0.40
-0.64
-0.69
-0.57
-0.36
-0.17
-0.03
0.08
0.19
0.33
0.43
0.43
0.27
-0.01
-0.29
-0.45
-0.40
-0.19
0.06
0.20
0.11
-0.17
-0.50
-0.73
-0.74
-0.55
-0.29
-0.07
0.03
0.04
0.05
0.12
0.24
0.33
0.28
0.10
-0.14
-0.30
-0.27
-0.06
0.21
0.38
0.32
0.03
-0.41
-0.81
-1.04
-1.04
-0.86
-0.60
-0.37
-0.25
-0.27
-0.38
-0.49
-0.51
-0.37
-0.11
0.20
0.45
0.55
0.49
0.36
0.27
0.32
0.56
0.96
1.42
1.79
1.99
1.95
1.70
1.32
0.91
0.56
0.31
0.15
0.04
-0.05
-0.13
-0.17
-0.13
0.01
0.19
0.35
0.44
0.43
0.37
0.30
0.28
0.31
0.33
0.22
-0.07
-0.56
-1.15
-1.69
-2.00
-1.99
-1.67
-1.14
-0.56
-0.09
0.18
0.22
0.09
-0.12
-0.34
-0.52
-0.62
-0.63
-0.56
-0.46
-0.37
-0.36
-0.47
-0.66
-0.85
-0.93
-0.84
-0.59
-0.27
-0.01
0.10
0.05
-0.09
-0.21
-0.22
-0.05
0.26
0.64
1.00
1.24
1.32
1.27
1.12
0.94
0.78
0.65
0.52
0.38
0.21
0.03
-0.13
-0.26
-0.36
-0.43
-0.48
-0.48
-0.40
-0.23
0.05
0.36
0.62
0.74
0.67
0.42
0.04
-0.40
-0.79
-1.10
-1.26
-1.26
-1.09
-0.78
-0.39
-0.02
0.24
0.36
0.37
0.33
0.33
0.37
0.45
0.49
0.46
0.35
0.24
0.18
0.22
0.33
0.42
0.42
0.32
0.16
0.04
0.05
0.22
0.45
0.64
0.66
0.47
0.13
-0.23
-0.48
-0.57
-0.47
-0.26
0.00
0.23
0.38
0.42
0.35
0.20
-0.00
-0.22
-0.43
-0.61
-0.76
-0.85
-0.86
-0.78
-0.66
-0.53
-0.44
-0.42
-0.41
-0.34
-0.17
0.08
0.31
0.39
0.26
-0.03
-0.34
-0.51
-0.46
-0.20
0.14
0.47
0.68
0.75
0.70
0.57
0.40
0.24
0.12
0.08
0.13
0.27
0.44
0.56
0.59
0.50
0.31
0.05
-0.24
-0.49
-0.63
-0.61
-0.40
-0.05
0.36
0.70
0.89
0.89
0.73
0.49
0.25
0.09
0.03
0.06
0.12
0.18
0.19
0.18
0.17
0.19
0.24
0.24
0.14
-0.11
-0.48
-0.89
-1.22
-1.39
-1.40
-1.32
-1.19
-1.04
-0.82
-0.48
-0.04
0.42
0.75
0.82
0.63
0.28
-0.05
-0.20
-0.12
0.11
0.33
0.43
0.37
0.23
0.11
0.12
0.24
0.42
0.53
0.51
0.35
0.13
-0.07
-0.19
-0.22
-0.21
-0.23
-0.28
-0.32
-0.29
-0.12
0.15
0.43
0.59
0.55
0.36
0.12
-0.02
0.01
0.19
0.42
0.60
0.63
0.50
0.23
-0.12
-0.47
-0.75
-0.89
-0.86
-0.68
-0.41
-0.15
0.03
0.09
0.05
-0.07
-0.22
-0.38
-0.53
-0.61
-0.60
-0.45
-0.19
0.09
0.29
0.32
0.18
-0.06
-0.25
-0.25
-0.03
0.35
0.71
0.87
0.73
0.35
-0.12
-0.53
-0.76
-0.84
-0.83
-0.82
-0.77
-0.63
-0.32
0.14
0.64
1.08
1.38
1.53
1.58
1.56
1.41
1.08
0.56
-0.07
-0.61
-0.90
-0.88
-0.67
-0.44
-0.36
-0.47
-0.66
-0.76
-0.69
-0.45
-0.16
0.05
0.10
0.04
-0.04
-0.04
0.07
0.25
0.41
0.48
0.42
0.26
0.08
-0.04
-0.07
0.01
0.16
0.34
0.48
0.52
0.43
0.24
-0.01
-0.25
-0.40
-0.43
-0.35
-0.21
-0.05
0.07
0.13
0.14
0.11
0.07
-0.00
-0.08
-0.18
-0.29
-0.36
-0.36
-0.25
-0.04
0.20
0.36
0.31
0.03
-0.43
-0.90
-1.21
-1.24
-0.98
-0.54
-0.08
0.26
0.39
0.30
0.05
-0.25
-0.48
-0.55
-0.44
-0.15
0.23
0.64
1.00
1.25
1.33
1.22
0.92
0.51
0.11
-0.13
-0.16
-0.01
0.21
0.38
0.45
0.47
0.52
0.63
0.76
0.78
0.60
0.21
-0.24
-0.59
-0.70
-0.58
-0.32
-0.10
-0.01
-0.07
-0.20
-0.32
-0.42
-0.50
-0.60
-0.70
-0.73
-0.62
-0.36
-0.04
0.19
0.23
0.06
-0.22
-0.49
-0.65
-0.68
-0.59
-0.42
-0.21
0.04
0.30
0.50
0.60
0.57
0.45
0.36
0.38
0.51
0.69
0.82
0.83
0.75
0.63
0.53
0.46
0.37
0.21
-0.01
-0.25
-0.42
-0.48
-0.42
-0.31
-0.20
-0.15
-0.15
-0.17
-0.18
-0.15
-0.09
-0.00
0.11
0.20
0.24
0.20
0.07
-0.12
-0.29
-0.37
-0.30
-0.12
0.13
0.38
0.57
0.69
0.71
0.63
0.45
0.17
-0.18
-0.53
-0.82
-0.97
-0.97
-0.85
-0.67
-0.49
-0.38
-0.36
-0.42
-0.55
-0.70
-0.83
-0.88
-0.84
-0.74
-0.60
-0.48
-0.39
-0.32
-0.20
-0.02
0.23
0.48
0.66
0.70
0.58
0.36
0.13
-0.01
0.01
0.18
0.46
0.75
0.98
1.10
1.06
0.88
0.58
0.23
-0.08
-0.27
-0.31
-0.20
0.00
0.23
0.43
0.57
0.63
0.59
0.44
0.18
-0.17
-0.54
-0.82
-0.95
-0.88
-0.64
-0.31
0.03
0.31
0.52
0.68
0.79
0.84
0.79
0.62
0.37
0.15
0.05
0.11
0.26
0.38
0.35
0.14
-0.18
-0.46
-0.57
-0.52
-0.38
-0.28
-0.29
-0.38
-0.44
-0.40
-0.21
0.05
0.24
0.28
0.16
-0.05
-0.24
-0.31
-0.27
-0.15
-0.06
-0.07
-0.17
-0.30
-0.39
-0.37
-0.22
-0.02
0.15
0.25
0.26
0.22
0.19
0.18
0.17
0.11
-0.02
-0.21
-0.37
-0.42
-0.31
-0.08
0.19
0.42
0.54
0.52
0.40
0.19
-0.05
-0.29
-0.48
-0.57
-0.54
-0.39
-0.18
0.02
0.15
0.20
0.16
0.08
-0.02
-0.11
-0.21
-0.30
-0.36
-0.36
-0.28
-0.11
0.10
0.29
0.37
0.29
0.04
-0.34
-0.79
-1.18
-1.39
-1.35
-1.03
-0.53
0.01
0.43
0.66
0.70
0.64
0.58
0.58
0.61
0.65
0.68
0.72
0.82
0.98
1.12
1.15
0.98
0.63
0.23
-0.06
-0.16
-0.05
0.19
0.41
0.52
0.47
0.28
-0.01
-0.32
-0.59
-0.77
-0.83
-0.78
-0.69
-0.60
-0.57
-0.60
-0.68
-0.75
-0.75
-0.67
-0.53
-0.33
-0.12
0.08
0.24
0.33
0.35
0.31
0.27
0.29
0.39
0.50
0.54
0.46
0.26
0.07
0.03
0.24
0.65
1.11
1.42
1.47
1.24
0.84
0.39
-0.03
-0.40
-0.71
-0.97
-1.12
-1.11
-0.90
-0.52
-0.08
0.28
0.47
0.45
0.24
-0.06
-0.34
-0.53
-0.59
-0.55
-0.48
-0.47
-0.55
-0.67
-0.75
-0.66
-0.36
0.12
0.65
1.05
1.17
0.97
0.55
0.07
-0.33
-0.56
-0.64
-0.64
-0.62
-0.58
-0.47
-0.26
0.06
0.42
0.70
0.84
0.82
0.70
0.53
0.40
0.33
0.31
0.33
0.37
0.39
0.38
0.31
0.21
0.11
0.02
-0.05
-0.10
-0.15
-0.20
-0.22
-0.20
-0.12
-0.03
0.03
0.02
-0.09
-0.25
-0.40
-0.48
-0.45
-0.32
-0.15
-0.02
-0.00
-0.09
-0.23
-0.35
-0.36
-0.29
-0.18
-0.13
-0.18
-0.30
-0.41
-0.42
-0.31
-0.09
0.15
0.35
0.45
0.46
0.42
0.36
0.32
0.30
0.28
0.26
0.21
0.13
0.03
-0.07
-0.13
-0.15
-0.16
-0.17
-0.23
-0.35
-0.49
-0.59
-0.58
-0.43
-0.16
0.17
0.44
0.58
0.55
0.39
0.16
-0.06
-0.21
-0.22
-0.09
0.15
0.43
0.64
0.72
0.62
0.38
0.10
-0.16
-0.34
-0.43
-0.45
-0.42
-0.35
-0.21
-0.02
0.20
0.37
0.45
0.42
0.32
0.21
0.13
0.11
0.13
0.17
0.21
0.25
0.30
0.36
0.42
0.45
0.42
0.32
0.20
0.08
-0.02
-0.11
-0.19
-0.26
-0.26
-0.15
0.06
0.30
0.42
0.29
-0.14
-0.75
-1.35
-1.70
-1.64
-1.17
-0.45
0.28
0.77
0.90
0.69
0.24
-0.24
-0.63
-0.86
-0.92
-0.86
-0.72
-0.50
-0.23
0.06
0.32
0.47
0.47
0.30
0.02
-0.30
-0.56
-0.68
-0.62
-0.37
0.02
0.43
0.75
0.84
0.68
0.34
-0.04
-0.28
-0.27
-0.03
0.31
0.59
0.70
0.64
0.49
0.34
0.24
0.18
0.10
-0.04
-0.22
-0.37
-0.41
-0.33
-0.19
-0.06
-0.02
-0.08
-0.18
-0.24
-0.18
0.00
0.28
0.56
0.76
0.85
0.83
0.73
0.61
0.45
0.26
-0.00
-0.30
-0.58
-0.73
-0.69
-0.46
-0.13
0.17
0.34
0.36
0.29
0.24
0.24
0.29
0.33
0.31
0.23
0.13
0.06
0.06
0.12
0.19
0.24
0.22
0.12
-0.05
-0.28
-0.57
-0.88
-1.16
-1.34
-1.34
-1.14
-0.77
-0.34
0.05
0.32
0.43
0.41
0.28
0.10
-0.10
-0.27
-0.37
-0.36
-0.28
-0.18
-0.12
-0.09
-0.05
0.07
0.30
0.56
0.72
0.65
0.33
-0.13
-0.50
-0.60
-0.41
-0.02
0.37
0.61
0.65
0.56
0.47
0.46
0.53
0.60
0.62
0.56
0.44
0.34
0.27
0.18
0.02
-0.26
-0.62
-0.96
-1.15
-1.11
-0.86
-0.53
-0.26
-0.15
-0.21
-0.31
-0.32
-0.17
0.11
0.43
0.66
0.74
0.68
0.51
0.30
0.10
-0.08
-0.23
-0.35
-0.42
-0.42
-0.34
-0.20
-0.01
0.19
0.33
0.38
0.31
0.14
-0.08
-0.27
-0.38
-0.41
-0.38
-0.34
-0.34
-0.42
-0.55
-0.68
-0.74
-0.67
-0.44
-0.08
0.36
0.79
1.14
1.36
1.41
1.31
1.09
0.78
0.44
0.08
-0.25
-0.50
-0.64
-0.62
-0.46
-0.21
0.04
0.20
0.25
0.22
0.19
0.21
0.28
0.33
0.28
0.13
-0.07
-0.20
-0.19
-0.02
0.24
0.47
0.56
0.49
0.30
0.07
-0.10
-0.18
-0.20
-0.19
-0.22
-0.30
-0.39
-0.46
-0.45
-0.34
-0.16
0.06
0.25
0.39
0.44
0.39
0.26
0.08
-0.11
-0.27
-0.35
-0.35
-0.30
-0.24
-0.24
-0.29
-0.36
-0.35
-0.20
0.08
0.41
0.66
0.74
0.66
0.48
0.31
0.19
0.09
-0.08
-0.35
-0.70
-1.00
-1.08
-0.89
-0.46
0.02
0.35
0.45
0.35
0.17
0.06
0.08
0.21
0.33
0.34
0.18
-0.08
-0.33
-0.44
-0.37
-0.18
0.03
0.17
0.23
0.27
0.36
0.53
0.73
0.88
0.92
0.82
0.60
0.37
0.19
0.12
0.18
0.27
0.32
0.24
-0.00
-0.33
-0.61
-0.72
-0.58
-0.23
0.19
0.51
0.61
0.45
0.11
-0.32
-0.72
-1.03
-1.24
-1.34
-1.31
-1.15
-0.88
-0.55
-0.27
-0.11
-0.09
-0.16
-0.21
-0.15
0.04
0.28
0.49
0.59
0.54
0.42
0.26
0.11
-0.02
-0.14
-0.22
-0.21
-0.10
0.12
0.35
0.48
0.44
0.23
-0.08
-0.37
-0.50
-0.41
-0.13
0.24
0.54
0.60
0.36
-0.13
-0.69
-1.11
-1.23
-1.03
-0.58
-0.06
0.36
0.60
0.64
0.56
0.47
0.44
0.50
0.61
0.70
0.72
0.65
0.55
0.48
0.51
0.64
0.78
0.81
0.64
0.26
-0.23
-0.69
-0.96
-0.99
-0.82
-0.58
-0.40
-0.37
-0.46
-0.60
-0.70
-0.70
-0.60
-0.43
-0.21
0.04
0.34
0.67
0.98
1.21
1.27
1.14
0.86
0.50
0.16
-0.13
-0.32
-0.42
-0.40
-0.25
0.04
0.42
0.78
0.98
0.92
0.61
0.16
-0.27
-0.53
-0.54
-0.34
-0.03
0.27
0.46
0.50
0.40
0.21
-0.02
-0.21
-0.35
-0.41
-0.40
-0.34
-0.24
-0.13
-0.09
-0.15
-0.34
-0.63
-0.92
-1.10
-1.11
-1.00
-0.85
-0.72
-0.63
-0.54
-0.40
-0.23
-0.10
-0.10
-0.24
-0.44
-0.57
-0.53
-0.35
-0.12
0.04
0.08
0.07
0.12
0.30
0.58
0.87
1.02
0.99
0.81
0.61
0.49
0.48
0.53
0.58
0.55
0.47
0.38
0.35
0.39
0.48
0.55
0.55
0.46
0.32
0.14
-0.01
-0.13
-0.22
-0.29
-0.37
-0.44
-0.49
-0.46
-0.35
-0.19
-0.07
-0.05
-0.15
-0.30
-0.42
-0.44
-0.35
-0.21
-0.09
-0.04
-0.06
-0.12
-0.14
-0.12
-0.03
0.09
0.21
0.29
0.26
0.11
-0.17
-0.52
-0.84
-1.03
-1.00
-0.71
-0.26
0.22
0.53
0.53
0.22
-0.27
-0.72
-0.95
-0.89
-0.62
-0.32
-0.14
-0.11
-0.16
-0.14
0.02
0.28
0.55
0.72
0.76
0.74
0.77
0.89
1.09
1.24
1.24
1.03
0.68
0.32
0.06
-0.06
-0.10
-0.15
-0.28
-0.48
-0.65
-0.70
-0.59
-0.37
-0.14
-0.02
-0.05
-0.18
-0.30
-0.32
-0.20
0.02
0.25
0.39
0.40
0.30
0.13
-0.04
-0.15
-0.20
-0.17
-0.08
0.08
0.28
0.48
0.63
0.68
0.60
0.44
0.26
0.15
0.13
0.18
0.25
0.27
0.22
0.12
0.00
-0.08
-0.12
-0.11
-0.10
-0.08
-0.09
-0.09
-0.10
-0.08
-0.04
0.06
0.23
0.47
0.72
0.93
1.01
0.91
0.65
0.29
-0.06
-0.31
-0.44
-0.47
-0.49
-0.57
-0.72
-0.91
-1.08
-1.17
-1.17
-1.11
-1.03
-0.94
-0.80
-0.57
-0.22
0.22
0.65
0.94
0.99
0.80
0.46
0.12
-0.08
-0.07
0.13
0.39
0.60
0.64
0.49
0.21
-0.11
-0.39
-0.55
-0.60
-0.53
-0.36
-0.12
0.13
0.33
0.42
0.39
0.26
0.07
-0.13
-0.33
-0.49
-0.60
-0.63
-0.58
-0.46
-0.31
-0.16
-0.07
-0.05
-0.09
-0.19
-0.31
-0.46
-0.61
-0.71
-0.69
-0.51
-0.21
0.15
0.45
0.62
0.64
0.52
0.34
0.15
0.00
-0.07
-0.07
-0.01
0.09
0.18
0.23
0.21
0.12
0.03
-0.01
0.07
0.26
0.49
0.66
0.65
0.46
0.17
-0.08
-0.13
0.03
0.34
0.59
0.64
0.41
-0.01
-0.45
-0.74
-0.80
-0.65
-0.40
-0.16
-0.03
-0.04
-0.15
-0.30
-0.41
-0.40
-0.21
0.11
0.47
0.74
0.85
0.78
0.63
0.50
0.43
0.38
0.28
0.05
-0.28
-0.58
-0.70
-0.55
-0.21
0.18
0.44
0.49
0.37
0.19
0.10
0.17
0.40
0.67
0.85
0.86
0.67
0.33
-0.05
-0.38
-0.58
-0.64
-0.59
-0.48
-0.37
-0.29
-0.24
-0.21
-0.18
-0.16
-0.12
-0.04
0.08
0.24
0.39
0.46
0.40
0.18
-0.14
-0.44
-0.60
-0.56
-0.35
-0.08
0.09
0.06
-0.16
-0.49
-0.77
-0.87
-0.72
-0.35
0.15
0.60
0.87
0.84
0.54
0.12
-0.25
-0.39
-0.26
0.05
0.37
0.57
0.62
0.61
0.61
0.68
0.76
0.75
0.58
0.25
-0.16
-0.51
-0.70
-0.67
-0.44
-0.11
0.18
0.32
0.25
0.02
-0.24
-0.39
-0.35
-0.16
0.04
0.08
-0.09
-0.40
-0.70
-0.85
-0.82
-0.68
-0.54
-0.48
-0.48
-0.43
-0.23
0.15
0.60
0.94
1.03
0.84
0.46
0.08
-0.19
-0.32
-0.33
-0.30
-0.28
-0.23
-0.12
0.09
0.36
0.64
0.85
0.98
1.06
1.10
1.11
1.04
0.84
0.48
0.02
-0.44
-0.79
-0.94
-0.91
-0.72
-0.48
-0.29
-0.20
-0.24
-0.38
-0.57
-0.74
-0.81
-0.78
-0.64
-0.42
-0.17
0.05
0.23
0.36
0.46
0.53
0.59
0.62
0.63
0.61
0.54
0.42
0.29
0.17
0.11
0.14
0.20
0.22
0.11
-0.17
-0.56
-0.94
-1.18
-1.24
-1.16
-1.05
-0.99
-0.98
-0.93
-0.74
-0.41
-0.01
0.31
0.40
0.25
-0.05
-0.34
-0.47
-0.37
-0.10
0.26
0.58
0.79
0.88
0.90
0.88
0.86
0.84
0.81
0.78
0.76
0.73
0.68
0.58
0.43
0.23
0.03
-0.15
-0.27
-0.35
-0.37
-0.34
-0.26
-0.12
0.01
0.07
-0.00
-0.22
-0.52
-0.79
-0.95
-0.94
-0.76
-0.48
-0.18
0.07
0.21
0.23
0.15
0.06
0.00
0.03
0.12
0.25
0.38
0.52
0.67
0.84
0.97
1.00
0.89
0.66
0.43
0.26
0.19
0.17
0.10
-0.07
-0.34
-0.63
-0.86
-0.99
-1.01
-0.96
-0.85
-0.69
-0.48
-0.23
-0.00
0.14
0.17
0.06
-0.17
-0.45
-0.68
-0.79
-0.71
-0.41
0.03
0.52
0.93
1.15
1.16
0.99
0.72
0.41
0.16
0.01
0.00
0.12
0.33
0.55
0.71
0.74
0.66
0.53
0.43
0.40
0.43
0.46
0.42
0.28
0.09
-0.06
-0.09
0.03
0.22
0.42
0.52
0.47
0.27
-0.07
-0.50
-0.94
-1.28
-1.41
-1.31
-1.02
-0.65
-0.35
-0.19
-0.18
-0.26
-0.33
-0.37
-0.39
-0.40
-0.41
-0.40
-0.35
-0.23
-0.09
0.06
0.17
0.21
0.15
-0.00
-0.25
-0.52
-0.77
-0.91
-0.93
-0.84
-0.68
-0.49
-0.27
-0.01
0.28
0.58
0.83
0.96
0.98
0.93
0.88
0.87
0.91
0.98
1.04
1.07
1.07
1.00
0.84
0.56
0.18
-0.22
-0.49
-0.51
-0.26
0.17
0.59
0.83
0.78
0.50
0.06
-0.39
-0.76
-1.01
-1.09
-1.01
-0.79
-0.49
-0.24
-0.15
-0.28
-0.56
-0.83
-0.94
-0.79
-0.45
-0.05
0.23
0.30
0.16
-0.10
-0.38
-0.58
-0.67
-0.61
-0.42
-0.11
0.28
0.66
0.94
1.01
0.83
0.44
-0.05
-0.52
-0.83
-0.93
-0.82
-0.58
-0.33
-0.15
-0.09
-0.12
-0.17
-0.18
-0.15
-0.09
-0.02
0.05
0.13
0.22
0.31
0.38
0.40
0.37
0.30
0.25
0.24
0.28
0.32
0.32
0.25
0.12
0.01
-0.05
-0.06
-0.04
-0.02
0.03
0.13
0.31
0.52
0.70
0.75
0.64
0.40
0.13
-0.06
-0.13
-0.10
-0.03
0.02
0.04
0.04
0.06
0.07
0.05
-0.02
-0.12
-0.19
-0.17
-0.01
0.24
0.51
0.69
0.73
0.63
0.48
0.34
0.25
0.17
0.03
-0.19
-0.46
-0.66
-0.67
-0.48
-0.15
0.15
0.27
0.16
-0.12
-0.42
-0.59
-0.58
-0.42
-0.20
-0.02
0.08
0.10
0.10
0.11
0.12
0.09
-0.01
-0.21
-0.47
-0.71
-0.84
-0.81
-0.60
-0.27
0.10
0.38
0.49
0.40
0.18
-0.08
-0.24
-0.25
-0.10
0.09
0.23
0.23
0.09
-0.16
-0.43
-0.67
-0.81
-0.81
-0.63
-0.27
0.20
0.65
0.94
0.98
0.80
0.51
0.23
0.08
0.07
0.17
0.34
0.52
0.67
0.77
0.76
0.63
0.39
0.13
-0.06
-0.14
-0.11
-0.02
0.04
0.05
0.01
-0.06
-0.13
-0.19
-0.22
-0.21
-0.17
-0.16
-0.24
-0.43
-0.68
-0.86
-0.86
-0.63
-0.27
0.07
0.23
0.21
0.10
0.03
0.08
0.20
0.25
0.13
-0.19
-0.57
-0.81
-0.77
-0.44
0.02
0.40
0.56
0.46
0.19
-0.08
-0.23
-0.23
-0.10
0.05
0.15
0.16
0.08
-0.04
-0.17
-0.30
-0.39
-0.43
-0.38
-0.22
0.04
0.36
0.66
0.89
1.00
0.96
0.81
0.62
0.45
0.36
0.36
0.40
0.41
0.33
0.14
-0.09
-0.33
-0.50
-0.58
-0.57
-0.48
-0.29
-0.01
0.30
0.56
0.68
0.60
0.35
0.03
-0.26
-0.42
-0.46
-0.39
-0.30
-0.23
-0.18
-0.14
-0.12
-0.15
-0.28
-0.49
-0.72
-0.82
-0.69
-0.33
0.18
0.64
0.87
0.79
0.45
0.01
-0.37
-0.60
-0.67
-0.60
-0.44
-0.22
0.06
0.39
0.70
0.92
0.98
0.88
0.62
0.29
-0.04
-0.31
-0.47
-0.51
-0.42
-0.24
-0.03
0.16
0.27
0.27
0.19
0.08
-0.01
-0.05
-0.07
-0.10
-0.15
-0.22
-0.22
-0.12
0.10
0.39
0.68
0.90
0.99
0.97
0.83
0.59
0.26
-0.11
-0.44
-0.62
-0.59
-0.36
-0.08
0.09
0.06
-0.19
-0.52
-0.78
-0.84
-0.69
-0.37
0.04
0.46
0.83
1.08
1.14
0.93
0.44
-0.18
-0.76
-1.09
-1.13
-0.97
-0.81
-0.80
-0.95
-1.11
-1.12
-0.86
-0.42
0.03
0.30
0.32
0.16
-0.03
-0.12
-0.06
0.08
0.22
0.34
0.44
0.57
0.77
0.98
1.13
1.17
1.08
0.90
0.67
0.43
0.20
-0.02
-0.24
-0.46
-0.70
-0.91
-1.06
-1.06
-0.85
-0.45
0.07
0.54
0.82
0.83
0.62
0.35
0.20
0.24
0.42
0.63
0.72
0.60
0.28
-0.14
-0.53
-0.80
-0.89
-0.83
-0.68
-0.52
-0.40
-0.33
-0.32
-0.33
-0.34
-0.34
-0.28
-0.13
0.11
0.41
0.68
0.79
0.69
0.41
0.05
-0.23
-0.35
-0.31
-0.22
-0.18
-0.26
-0.45
-0.70
-0.90
-0.99
-0.98
-0.87
-0.71
-0.55
-0.40
-0.27
-0.11
0.11
0.38
0.67
0.87
0.90
0.74
0.43
0.12
-0.06
-0.03
0.18
0.47
0.71
0.80
0.70
0.45
0.13
-0.15
-0.30
-0.31
-0.19
0.01
0.21
0.37
0.45
0.46
0.41
0.27
0.05
-0.26
-0.59
-0.87
-1.00
-0.93
-0.66
-0.27
0.18
0.63
1.02
1.30
1.40
1.27
0.90
0.38
-0.13
-0.45
-0.51
-0.34
-0.09
0.08
0.09
-0.06
-0.25
-0.38
-0.41
-0.34
-0.24
-0.17
-0.15
-0.18
-0.19
-0.14
0.01
0.25
0.54
0.77
0.86
0.74
0.45
0.10
-0.20
-0.37
-0.41
-0.37
-0.32
-0.28
-0.23
-0.12
0.06
0.29
0.49
0.59
0.54
0.37
0.14
-0.10
-0.27
-0.37
-0.42
-0.42
-0.41
-0.38
-0.35
-0.33
-0.30
-0.27
-0.24
-0.20
-0.14
-0.07
0.00
0.06
0.07
0.02
-0.08
-0.18
-0.21
-0.11
0.17
0.58
1.04
1.42
1.58
1.49
1.16
0.71
0.30
0.05
0.00
0.12
0.30
0.42
0.40
0.25
0.01
-0.24
-0.42
-0.52
-0.54
-0.51
-0.47
-0.43
-0.40
-0.37
-0.35
-0.33
-0.32
-0.33
-0.34
-0.38
-0.45
-0.52
-0.55
-0.51
-0.37
-0.20
-0.07
-0.10
-0.30
-0.63
-0.97
-1.18
-1.17
-0.93
-0.52
-0.06
0.36
0.68
0.85
0.89
0.82
0.71
0.60
0.54
0.55
0.58
0.59
0.52
0.35
0.14
-0.06
-0.16
-0.14
-0.02
0.10
0.16
0.13
0.03
-0.07
-0.13
-0.15
-0.18
-0.28
-0.44
-0.61
-0.70
-0.62
-0.38
-0.07
0.17
0.25
0.15
-0.05
-0.24
-0.34
-0.32
-0.18
-0.00
0.17
0.28
0.32
0.29
0.20
0.06
-0.10
-0.24
-0.33
-0.36
-0.30
-0.14
0.09
0.32
0.47
0.47
0.31
0.02
-0.31
-0.57
-0.66
-0.54
-0.21
0.24
0.67
0.94
0.97
0.75
0.40
0.05
-0.19
-0.32
-0.38
-0.43
-0.53
-0.61
-0.61
-0.49
-0.24
0.08
0.42
0.72
0.98
1.18
1.28
1.27
1.10
0.80
0.45
0.10
-0.19
-0.42
-0.59
-0.69
-0.70
-0.57
-0.31
-0.01
0.24
0.30
0.13
-0.22
-0.62
-0.90
-0.98
-0.83
-0.51
-0.14
0.18
0.37
0.39
0.27
0.06
-0.14
-0.24
-0.17
0.06
0.38
0.69
0.85
0.84
0.68
0.49
0.36
0.32
0.29
0.19
-0.03
-0.34
-0.61
-0.74
-0.72
-0.62
-0.58
-0.66
-0.83
-0.97
-0.98
-0.85
-0.66
-0.52
-0.47
-0.47
-0.43
-0.31
-0.14
0.01
0.08
0.09
0.11
0.23
0.46
0.74
0.97
1.08
1.07
0.99
0.89
0.81
0.73
0.61
0.46
0.31
0.22
0.20
0.21
0.16
-0.03
-0.36
-0.74
-0.99
-0.97
-0.64
-0.09
0.46
0.79
0.81
0.55
0.17
-0.15
-0.32
-0.32
-0.22
-0.09
0.01
0.10
0.22
0.38
0.54
0.64
0.60
0.41
0.12
-0.18
-0.39
-0.47
-0.45
-0.35
-0.23
-0.10
0.03
0.16
0.25
0.27
0.18
0.03
-0.12
-0.19
-0.18
-0.14
-0.15
-0.24
-0.38
-0.46
-0.35
0.00
0.53
1.09
1.47
1.55
1.29
0.79
0.22
-0.28
-0.61
-0.78
-0.83
-0.83
-0.83
-0.81
-0.77
-0.68
-0.59
-0.53
-0.56
-0.67
-0.80
-0.85
-0.75
-0.46
-0.09
0.23
0.36
0.24
-0.05
-0.32
-0.43
-0.29
0.02
0.36
0.58
0.62
0.56
0.50
0.47
0.46
0.36
0.13
-0.21
-0.51
-0.61
-0.46
-0.14
0.19
0.36
0.34
0.20
0.08
0.05
0.10
0.16
0.17
0.12
0.09
0.14
0.29
0.49
0.67
0.74
0.69
0.57
0.44
0.32
0.25
0.21
0.20
0.21
0.20
0.16
0.09
0.01
-0.06
-0.08
-0.02
0.09
0.16
0.13
-0.03
-0.32
-0.62
-0.85
-0.93
-0.88
-0.75
-0.62
-0.55
-0.54
-0.54
-0.49
-0.36
-0.18
-0.02
0.06
0.05
0.04
0.07
0.17
0.29
0.34
0.28
0.11
-0.08
-0.20
-0.18
-0.05
0.11
0.23
0.26
0.20
0.10
0.01
-0.00
0.08
0.25
0.44
0.58
0.59
0.46
0.25
0.04
-0.09
-0.15
-0.20
-0.30
-0.45
-0.56
-0.56
-0.42
-0.18
0.03
0.11
0.08
0.03
0.06
0.22
0.47
0.67
0.71
0.56
0.28
0.01
-0.18
-0.27
-0.33
-0.42
-0.58
-0.76
-0.87
-0.87
-0.77
-0.62
-0.50
-0.41
-0.30
-0.12
0.17
0.53
0.86
1.07
1.12
1.01
0.80
0.56
0.31
0.09
-0.06
-0.12
-0.06
0.10
0.30
0.44
0.47
0.38
0.21
0.04
-0.06
-0.09
-0.04
0.06
0.17
0.26
0.31
0.33
0.31
0.23
0.10
-0.08
-0.32
-0.58
-0.81
-0.95
-0.95
-0.80
-0.55
-0.27
-0.08
-0.02
-0.11
-0.29
-0.49
-0.62
-0.64
-0.55
-0.36
-0.13
0.12
0.35
0.57
0.77
0.93
1.00
0.93
0.71
0.36
-0.01
-0.31
-0.45
-0.38
-0.14
0.17
0.43
0.56
0.51
0.30
0.00
-0.28
-0.50
-0.63
-0.71
-0.75
-0.75
-0.65
-0.43
-0.09
0.26
0.45
0.38
0.05
-0.42
-0.82
-1.00
-0.89
-0.55
-0.09
0.33
0.66
0.89
1.05
1.14
1.14
1.01
0.75
0.40
0.09
-0.07
-0.00
0.27
0.63
0.94
1.07
0.95
0.60
0.13
-0.34
-0.70
-0.90
-0.92
-0.82
-0.62
-0.35
-0.07
0.20
0.36
0.34
0.14
-0.19
-0.51
-0.66
-0.57
-0.23
0.23
0.65
0.87
0.84
0.60
0.28
0.01
-0.11
-0.07
0.03
0.07
-0.07
-0.38
-0.72
-0.93
-0.87
-0.56
-0.15
0.14
0.17
-0.08
-0.49
-0.88
-1.10
-1.10
-0.93
-0.67
-0.41
-0.21
-0.05
0.07
0.15
0.17
0.13
0.02
-0.10
-0.17
-0.12
0.08
0.37
0.66
0.85
0.87
0.75
0.57
0.43
0.37
0.38
0.40
0.39
0.36
0.33
0.32
0.30
0.23
0.08
-0.10
-0.21
-0.15
0.09
0.40
0.58
0.43
-0.04
-0.70
-1.26
-1.50
-1.32
-0.81
-0.17
0.39
0.75
0.93
0.99
0.98
0.93
0.80
0.59
0.30
0.00
-0.23
-0.33
-0.29
-0.15
0.01
0.11
0.13
0.08
0.00
-0.03
0.01
0.08
0.12
0.05
-0.14
-0.41
-0.66
-0.82
-0.84
-0.75
-0.64
-0.58
-0.64
-0.80
-1.01
-1.19
-1.25
-1.13
-0.82
-0.34
0.25
0.85
1.36
1.71
1.85
1.79
1.59
1.34
1.13
0.99
0.95
0.96
0.98
0.93
0.76
0.48
0.12
-0.25
-0.52
-0.64
-0.62
-0.53
-0.51
-0.62
-0.89
-1.24
-1.54
-1.66
-1.53
-1.17
-0.62
0.03
0.66
1.15
1.39
1.33
0.97
0.45
-0.05
-0.35
-0.37
-0.18
0.06
0.14
-0.04
-0.44
-0.89
-1.21
-1.27
-1.07
-0.73
-0.37
-0.05
0.21
0.46
0.67
0.84
0.90
0.86
0.73
0.56
0.41
0.28
0.19
0.11
0.05
0.04
0.08
0.14
0.18
0.12
-0.08
-0.41
-0.77
-1.06
-1.18
-1.10
-0.85
-0.52
-0.17
0.16
0.46
0.73
0.99
1.16
1.21
1.11
0.88
0.60
0.34
0.14
0.02
-0.04
-0.03
0.03
0.11
0.17
0.14
-0.03
-0.32
-0.65
-0.92
-1.06
-1.06
-0.98
-0.90
-0.85
-0.83
-0.81
-0.76
-0.68
-0.62
-0.57
-0.50
-0.37
-0.16
0.13
0.41
0.59
0.62
0.54
0.43
0.38
0.44
0.56
0.65
0.66
0.60
0.52
0.47
0.44
0.35
0.11
-0.28
-0.77
-1.18
-1.35
-1.20
-0.80
-0.29
0.17
0.48
0.64
0.70
0.71
0.69
0.64
0.54
0.39
0.19
-0.01
-0.17
-0.23
-0.14
0.12
0.52
0.93
1.23
1.32
1.19
0.89
0.52
0.16
-0.16
-0.43
-0.63
-0.70
-0.62
-0.37
-0.04
0.24
0.39
0.36
0.21
0.02
-0.13
-0.20
-0.20
-0.16
-0.10
-0.04
-0.02
-0.03
-0.06
-0.08
-0.06
0.03
0.19
0.35
0.47
0.52
0.50
0.42
0.30
0.15
-0.03
-0.24
-0.50
-0.77
-1.02
-1.17
-1.18
-1.02
-0.74
-0.42
-0.18
-0.09
-0.16
-0.30
-0.41
-0.42
-0.34
-0.22
-0.15
-0.15
-0.18
-0.20
-0.17
-0.09
0.01
0.12
0.19
0.23
0.23
0.17
0.04
-0.10
-0.20
-0.18
-0.04
0.21
0.47
0.67
0.75
0.74
0.72
0.72
0.75
0.74
0.66
0.49
0.30
0.16
0.11
0.14
0.17
0.18
0.15
0.15
0.22
0.37
0.53
0.61
0.55
0.36
0.11
-0.11
-0.26
-0.33
-0.36
-0.36
-0.36
-0.34
-0.33
-0.33
-0.37
-0.43
-0.47
-0.46
-0.37
-0.21
-0.05
0.07
0.08
-0.01
-0.17
-0.31
-0.37
-0.29
-0.11
0.09
0.21
0.18
0.01
-0.25
-0.48
-0.60
-0.59
-0.46
-0.26
-0.08
0.04
0.10
0.11
0.11
0.11
0.12
0.12
0.05
-0.10
-0.31
-0.53
-0.68
-0.67
-0.49
-0.17
0.20
0.52
0.73
0.78
0.66
0.44
0.16
-0.07
-0.21
-0.23
-0.16
-0.04
0.11
0.27
0.40
0.51
0.58
0.59
0.54
0.44
0.30
0.15
0.04
-0.03
-0.02
0.05
0.20
0.41
0.63
0.80
0.86
0.79
0.58
0.30
0.02
-0.19
-0.30
-0.32
-0.32
-0.36
-0.44
-0.55
-0.60
-0.55
-0.41
-0.22
-0.08
-0.03
-0.10
-0.27
-0.50
-0.73
-0.91
-1.00
-0.95
-0.75
-0.46
-0.15
0.12
0.29
0.41
0.54
0.69
0.83
0.89
0.79
0.54
0.22
-0.08
-0.24
-0.24
-0.11
0.08
0.26
0.36
0.36
0.27
0.10
-0.10
-0.24
-0.26
-0.17
-0.02
0.11
0.14
0.07
-0.05
-0.14
-0.14
-0.07
0.03
0.10
0.08
-0.02
-0.17
-0.29
-0.35
-0.32
-0.21
-0.07
0.05
0.08
-0.02
-0.25
-0.58
-0.89
-1.10
-1.12
-0.96
-0.69
-0.42
-0.26
-0.24
-0.33
-0.42
-0.44
-0.33
-0.08
0.27
0.65
0.97
1.17
1.20
1.03
0.71
0.32
-0.02
-0.22
-0.25
-0.14
0.04
0.19
0.24
0.16
-0.03
-0.29
-0.55
-0.74
-0.81
-0.73
-0.53
-0.22
0.12
0.43
0.64
0.71
0.66
0.55
0.47
0.46
0.57
0.75
0.94
1.09
1.14
1.10
0.99
0.82
0.61
0.36
0.07
-0.22
-0.50
-0.74
-0.91
-0.98
-0.91
-0.66
-0.27
0.17
0.55
0.74
0.67
0.36
-0.07
-0.48
-0.75
-0.83
-0.79
-0.70
-0.61
-0.53
-0.41
-0.23
0.01
0.23
0.30
0.17
-0.17
-0.61
-1.01
-1.24
-1.20
-0.88
-0.31
0.39
1.08
1.59
1.80
1.64
1.13
0.41
-0.35
-0.95
-1.26
-1.22
-0.88
-0.39
0.11
0.47
0.65
0.67
0.61
0.53
0.44
0.32
0.15
-0.10
-0.38
-0.63
-0.80
-0.84
-0.73
-0.47
-0.08
0.38
0.82
1.13
1.26
1.18
0.95
0.65
0.36
0.10
-0.09
-0.21
-0.27
-0.26
-0.20
-0.09
0.02
0.11
0.18
0.22
0.24
0.24
0.21
0.17
0.13
0.10
0.08
0.06
-0.01
-0.13
-0.31
-0.55
-0.81
-1.08
-1.30
-1.44
-1.44
-1.25
-0.88
-0.37
0.19
0.70
1.06
1.21
1.14
0.91
0.58
0.23
-0.05
-0.21
-0.26
-0.21
-0.14
-0.12
-0.18
-0.32
-0.46
-0.55
-0.54
-0.43
-0.26
-0.07
0.13
0.34
0.57
0.78
0.91
0.91
0.78
0.61
0.47
0.42
0.45
0.49
0.51
0.48
0.44
0.39
0.30
0.11
-0.21
-0.61
-0.97
-1.13
-1.01
-0.65
-0.22
0.12
0.21
0.03
-0.35
-0.77
-1.07
-1.10
-0.82
-0.28
0.35
0.86
1.09
0.97
0.57
0.04
-0.44
-0.73
-0.81
-0.71
-0.52
-0.28
0.00
0.28
0.49
0.57
0.46
0.17
-0.20
-0.49
-0.58
-0.43
-0.12
0.21
0.43
0.50
0.48
0.45
0.48
0.56
0.62
0.62
0.56
0.48
0.42
0.38
0.32
0.14
-0.17
-0.54
-0.86
-1.03
-0.98
-0.75
-0.45
-0.16
0.05
0.18
0.22
0.22
0.20
0.23
0.33
0.51
0.74
0.91
0.93
0.77
0.47
0.11
-0.19
-0.37
-0.45
-0.47
-0.49
-0.53
-0.57
-0.57
-0.49
-0.32
-0.09
0.17
0.40
0.54
0.55
0.41
0.16
-0.14
-0.41
-0.59
-0.68
-0.69
-0.65
-0.62
-0.59
-0.57
-0.56
-0.52
-0.41
-0.23
0.02
0.26
0.44
0.53
0.54
0.50
0.49
0.52
0.60
0.68
0.73
0.75
0.74
0.72
0.71
0.70
0.69
0.66
0.62
0.56
0.49
0.45
0.43
0.43
0.44
0.44
0.40
0.32
0.18
-0.00
-0.22
-0.44
-0.63
-0.73
-0.75
-0.73
-0.74
-0.83
-1.01
-1.21
-1.35
-1.36
-1.24
-1.05
-0.84
-0.66
-0.52
-0.38
-0.24
-0.14
-0.11
-0.17
-0.29
-0.39
-0.40
-0.28
-0.03
0.27
0.53
0.69
0.68
0.53
0.29
0.04
-0.16
-0.24
-0.20
-0.06
0.12
0.31
0.45
0.53
0.52
0.43
0.28
0.10
-0.05
-0.13
-0.16
-0.16
-0.15
-0.13
-0.08
0.07
0.33
0.68
1.02
1.23
1.21
0.98
0.59
0.19
-0.10
-0.22
-0.20
-0.13
-0.10
-0.16
-0.30
-0.44
-0.51
-0.50
-0.45
-0.44
-0.53
-0.71
-0.91
-1.03
-0.99
-0.77
-0.42
-0.05
0.26
0.46
0.55
0.59
0.63
0.65
0.66
0.63
0.57
0.55
0.62
0.78
0.99
1.14
1.15
1.01
0.76
0.48
0.18
-0.15
-0.53
-0.98
-1.39
-1.64
-1.61
-1.29
-0.80
-0.28
0.10
0.28
0.29
0.23
0.21
0.30
0.48
0.67
0.78
0.74
0.52
0.20
-0.08
-0.21
-0.14
0.08
0.33
0.49
0.50
0.40
0.26
0.16
0.10
0.04
-0.03
-0.11
-0.13
-0.07
0.07
0.18
0.15
-0.08
-0.49
-0.93
-1.23
-1.28
-1.06
-0.68
-0.29
0.00
0.12
0.11
0.03
-0.03
0.00
0.11
0.25
0.32
0.27
0.07
-0.20
-0.47
-0.65
-0.68
-0.60
-0.48
-0.36
-0.27
-0.18
-0.06
0.12
0.34
0.53
0.64
0.62
0.48
0.26
0.05
-0.08
-0.07
0.06
0.21
0.26
0.11
-0.22
-0.64
-0.99
-1.11
-0.97
-0.64
-0.26
0.08
0.36
0.62
0.91
1.21
1.43
1.44
1.15
0.64
0.05
-0.41
-0.59
-0.49
-0.22
0.07
0.29
0.39
0.43
0.46
0.50
0.49
0.39
0.21
-0.03
-0.24
-0.35
-0.36
-0.29
-0.22
-0.20
-0.23
-0.29
-0.34
-0.35
-0.30
-0.21
-0.12
-0.08
-0.11
-0.21
-0.32
-0.38
-0.34
-0.21
-0.05
0.08
0.09
0.01
-0.12
-0.19
-0.12
0.08
0.35
0.58
0.66
0.53
0.22
-0.20
-0.60
-0.89
-0.98
-0.88
-0.62
-0.31
-0.05
0.09
0.08
-0.03
-0.14
-0.15
-0.05
0.15
0.35
0.46
0.42
0.24
0.03
-0.14
-0.20
-0.12
0.05
0.24
0.41
0.52
0.57
0.56
0.54
0.54
0.56
0.62
0.68
0.72
0.73
0.67
0.55
0.40
0.24
0.11
0.01
-0.06
-0.13
-0.21
-0.31
-0.39
-0.39
-0.29
-0.09
0.14
0.29
0.26
0.04
-0.29
-0.61
-0.80
-0.81
-0.67
-0.46
-0.27
-0.13
-0.05
0.02
0.08
0.14
0.20
0.23
0.27
0.33
0.40
0.47
0.49
0.43
0.32
0.23
0.19
0.22
0.26
0.23
0.04
-0.30
-0.72
-1.07
-1.24
-1.20
-0.99
-0.71
-0.43
-0.21
-0.08
-0.01
-0.02
-0.11
-0.26
-0.43
-0.55
-0.53
-0.35
-0.08
0.18
0.34
0.36
0.29
0.22
0.18
0.18
0.16
0.07
-0.11
-0.33
-0.53
-0.66
-0.68
-0.59
-0.38
-0.05
0.35
0.76
1.05
1.12
0.95
0.61
0.23
-0.02
-0.11
-0.05
0.06
0.11
0.08
0.01
-0.01
0.04
0.16
0.28
0.33
0.24
0.03
-0.22
-0.43
-0.51
-0.41
-0.14
0.23
0.62
0.91
1.01
0.92
0.69
0.42
0.22
0.15
0.18
0.23
0.19
-0.01
-0.35
-0.73
-1.02
-1.11
-0.98
-0.72
-0.41
-0.15
0.04
0.17
0.27
0.35
0.39
0.34
0.19
-0.04
-0.27
-0.41
-0.42
-0.28
-0.06
0.16
0.29
0.25
0.05
-0.27
-0.58
-0.77
-0.74
-0.50
-0.16
0.14
0.27
0.20
0.01
-0.17
-0.23
-0.12
0.11
0.39
0.64
0.78
0.81
0.70
0.48
0.18
-0.12
-0.35
-0.47
-0.51
-0.49
-0.48
-0.45
-0.38
-0.22
0.03
0.31
0.52
0.59
0.54
0.41
0.27
0.15
0.04
-0.10
-0.28
-0.45
-0.54
-0.46
-0.22
0.13
0.45
0.63
0.60
0.38
0.05
-0.26
-0.46
-0.47
-0.30
-0.03
0.26
0.44
0.46
0.33
0.12
-0.04
-0.07
0.06
0.28
0.49
0.60
0.58
0.44
0.23
-0.01
-0.22
-0.35
-0.35
-0.17
0.18
0.64
1.06
1.30
1.25
0.91
0.38
-0.19
-0.65
-0.88
-0.88
-0.72
-0.52
-0.38
-0.38
-0.48
-0.61
-0.70
-0.69
-0.59
-0.47
-0.36
-0.28
-0.22
-0.13
-0.00
0.13
0.21
0.20
0.10
-0.02
-0.07
0.00
0.20
0.47
0.72
0.87
0.87
0.70
0.42
0.10
-0.21
-0.44
-0.59
-0.64
-0.62
-0.55
-0.45
-0.35
-0.26
-0.17
-0.09
-0.03
0.02
0.04
0.07
0.12
0.22
0.37
0.53
0.61
0.53
0.27
-0.12
-0.49
-0.73
-0.77
-0.65
-0.48
-0.42
-0.53
-0.77
-1.03
-1.16
-1.07
-0.77
-0.35
0.09
0.43
0.64
0.70
0.68
0.64
0.63
0.66
0.70
0.72
0.69
0.65
0.63
0.67
0.78
0.90
0.95
0.82
0.52
0.12
-0.24
-0.48
-0.54
-0.50
-0.45
-0.46
-0.51
-0.54
-0.43
-0.18
0.15
0.42
0.50
0.35
0.07
-0.20
-0.27
-0.10
0.20
0.44
0.44
0.16
-0.28
-0.65
-0.75
-0.53
-0.14
0.20
0.29
0.12
-0.19
-0.45
-0.54
-0.49
-0.36
-0.25
-0.19
-0.14
-0.06
0.05
0.13
0.16
0.14
0.12
0.18
0.32
0.50
0.64
0.68
0.62
0.51
0.39
0.30
0.22
0.11
-0.04
-0.22
-0.37
-0.47
-0.47
-0.41
-0.31
-0.20
-0.11
-0.04
0.03
0.11
0.17
0.17
0.07
-0.11
-0.31
-0.43
-0.39
-0.21
0.02
0.20
0.27
0.23
0.18
0.19
0.26
0.29
0.18
-0.10
-0.43
-0.66
-0.65
-0.41
-0.06
0.20
0.24
0.06
-0.22
-0.44
-0.50
-0.39
-0.20
0.00
0.14
0.21
0.22
0.20
0.18
0.18
0.23
0.29
0.33
0.29
0.18
0.03
-0.05
-0.01
0.17
0.43
0.66
0.76
0.70
0.50
0.26
0.06
-0.03
-0.04
-0.02
-0.01
-0.03
-0.03
0.05
0.23
0.48
0.70
0.78
0.65
0.32
-0.12
-0.56
-0.89
-1.06
-1.05
-0.91
-0.65
-0.34
-0.06
0.10
0.06
-0.16
-0.46
-0.72
-0.83
-0.77
-0.61
-0.46
-0.41
-0.48
-0.58
-0.62
-0.52
-0.26
0.09
0.45
0.72
0.86
0.87
0.82
0.74
0.68
0.65
0.62
0.55
0.42
0.22
-0.01
-0.21
-0.36
-0.42
-0.40
-0.31
-0.18
-0.04
0.04
0.00
-0.16
-0.41
-0.63
-0.70
-0.57
-0.29
0.06
0.33
0.48
0.50
0.42
0.30
0.16
0.03
-0.07
-0.08
0.03
0.26
0.56
0.81
0.92
0.86
0.65
0.36
0.07
-0.20
-0.43
-0.59
-0.68
-0.68
-0.58
-0.44
-0.29
-0.16
-0.06
0.04
0.15
0.26
0.33
0.37
0.39
0.46
0.59
0.75
0.83
0.75
0.48
0.08
-0.34
-0.65
-0.79
-0.75
-0.57
-0.33
-0.09
0.10
0.22
0.27
0.30
0.34
0.40
0.46
0.45
0.31
0.03
-0.34
-0.68
-0.87
-0.85
-0.63
-0.29
0.03
0.22
0.23
0.11
-0.03
-0.09
-0.02
0.15
0.30
0.36
0.34
0.32
0.40
0.63
0.92
1.07
0.89
0.33
-0.47
-1.23
-1.65
-1.55
-0.98
-0.18
0.54
0.94
0.95
0.62
0.14
-0.33
-0.67
-0.83
-0.83
-0.73
-0.58
-0.40
-0.21
-0.00
0.20
0.38
0.49
0.47
0.29
-0.01
-0.33
-0.56
-0.65
-0.61
-0.48
-0.36
-0.28
-0.25
-0.26
-0.27
-0.30
-0.33
-0.34
-0.28
-0.11
0.14
0.40
0.52
0.44
0.18
-0.14
-0.36
-0.34
-0.08
0.33
0.74
1.02
1.13
1.09
0.96
0.82
0.70
0.63
0.58
0.55
0.48
0.36
0.20
0.04
-0.07
-0.09
-0.05
0.01
0.01
-0.10
-0.29
-0.47
-0.56
-0.51
-0.33
-0.11
0.04
0.07
0.01
-0.06
-0.07
-0.01
0.04
0.01
-0.15
-0.42
-0.68
-0.82
-0.80
-0.66
-0.47
-0.31
-0.19
-0.11
-0.05
-0.02
-0.05
-0.15
-0.30
-0.42
-0.43
-0.32
-0.13
0.08
0.26
0.43
0.65
0.94
1.25
1.45
1.42
1.12
0.67
0.26
0.06
0.14
0.40
0.64
0.69
0.49
0.08
-0.39
-0.81
-1.12
-1.31
-1.35
-1.23
-0.92
-0.49
-0.01
0.36
0.53
0.50
0.35
0.20
0.14
0.17
0.23
0.23
0.16
0.07
0.03
0.09
0.25
0.44
0.61
0.69
0.70
0.65
0.56
0.45
0.33
0.20
0.05
-0.13
-0.36
-0.61
-0.84
-0.99
-1.04
-0.99
-0.94
-0.95
-1.06
-1.22
-1.33
-1.26
-1.01
-0.66
-0.33
-0.12
-0.04
-0.03
0.00
0.11
0.28
0.47
0.64
0.77
0.82
0.80
0.68
0.46
0.15
-0.19
-0.47
-0.63
-0.66
-0.59
-0.50
-0.42
-0.32
-0.16
0.10
0.44
0.75
0.90
0.81
0.54
0.24
0.07
0.13
0.40
0.70
0.89
0.88
0.69
0.41
0.13
-0.12
-0.32
-0.45
-0.48
-0.36
-0.10
0.23
0.52
0.65
0.57
0.33
0.01
-0.25
-0.39
-0.35
-0.19
0.02
0.17
0.16
-0.00
-0.27
-0.50
-0.58
-0.49
-0.27
-0.01
0.20
0.28
0.23
0.10
-0.04
-0.15
-0.14
-0.03
0.17
0.38
0.52
0.54
0.43
0.25
0.06
-0.09
-0.17
-0.17
-0.12
-0.02
0.10
0.20
0.26
0.25
0.18
0.04
-0.16
-0.40
-0.62
-0.75
-0.71
-0.52
-0.22
0.07
0.23
0.22
0.09
-0.10
-0.26
-0.36
-0.39
-0.41
-0.46
-0.55
-0.65
-0.72
-0.69
-0.51
-0.18
0.24
0.64
0.90
0.97
0.88
0.70
0.51
0.35
0.22
0.09
-0.01
-0.07
-0.06
0.01
0.10
0.15
0.10
-0.02
-0.13
-0.16
-0.07
0.13
0.33
0.41
0.30
-0.01
-0.41
-0.74
-0.84
-0.66
-0.25
0.28
0.76
1.07
1.15
1.00
0.68
0.24
-0.24
-0.70
-1.02
-1.11
-0.91
-0.47
0.07
0.50
0.66
0.51
0.12
-0.32
-0.62
-0.68
-0.51
-0.22
0.08
0.31
0.45
0.50
0.50
0.42
0.29
0.12
-0.01
-0.05
0.03
0.19
0.34
0.41
0.34
0.19
0.01
-0.13
-0.22
-0.28
-0.34
-0.42
-0.50
-0.56
-0.56
-0.51
-0.40
-0.24
-0.06
0.13
0.29
0.37
0.36
0.28
0.18
0.11
0.09
0.11
0.12
0.06
-0.06
-0.20
-0.29
-0.27
-0.12
0.11
0.36
0.55
0.64
0.60
0.50
0.38
0.26
0.19
0.14
0.09
0.02
-0.10
-0.27
-0.45
-0.59
-0.64
-0.54
-0.34
-0.11
0.06
0.09
0.03
-0.05
-0.06
0.02
0.13
0.16
0.06
-0.13
-0.32
-0.37
-0.22
0.07
0.40
0.65
0.72
0.62
0.39
0.11
-0.11
-0.19
-0.09
0.18
0.50
0.74
0.79
0.63
0.37
0.11
-0.05
-0.12
-0.15
-0.22
-0.36
-0.53
-0.68
-0.75
-0.74
-0.66
-0.55
-0.43
-0.32
-0.22
-0.14
-0.11
-0.15
-0.29
-0.52
-0.79
-1.03
-1.13
-1.01
-0.66
-0.16
0.39
0.83
1.06
1.04
0.80
0.42
0.01
-0.33
-0.51
-0.49
-0.29
-0.00
0.29
0.50
0.55
0.45
0.22
-0.07
-0.36
-0.58
-0.66
-0.57
-0.32
0.01
0.34
0.57
0.63
0.54
0.37
0.22
0.19
0.30
0.52
0.77
0.95
1.02
0.99
0.88
0.75
0.60
0.46
0.33
0.18
0.00
-0.23
-0.52
-0.84
-1.15
-1.36
-1.43
-1.33
-1.08
-0.74
-0.39
-0.09
0.14
0.32
0.43
0.46
0.37
0.13
-0.20
-0.51
-0.65
-0.54
-0.18
0.27
0.67
0.88
0.91
0.83
0.74
0.66
0.54
0.32
-0.01
-0.35
-0.58
-0.58
-0.35
0.01
0.33
0.46
0.38
0.13
-0.17
-0.37
-0.42
-0.35
-0.24
-0.19
-0.23
-0.35
-0.45
-0.47
-0.38
-0.21
-0.02
0.12
0.22
0.30
0.41
0.53
0.61
0.59
0.41
0.09
-0.26
-0.53
-0.61
-0.49
-0.23
0.06
0.27
0.36
0.35
0.30
0.28
0.31
0.38
0.45
0.48
0.44
0.33
0.18
0.00
-0.16
-0.25
-0.22
-0.05
0.24
0.55
0.77
0.80
0.64
0.33
-0.01
-0.31
-0.49
-0.55
-0.52
-0.44
-0.32
-0.18
-0.01
0.18
0.34
0.41
0.34
0.13
-0.17
-0.45
-0.62
-0.63
-0.46
-0.19
0.11
0.38
0.54
0.57
0.42
0.11
-0.32
-0.78
-1.14
-1.33
-1.28
-1.01
-0.59
-0.07
0.47
0.93
1.24
1.29
1.07
0.64
0.15
-0.25
-0.44
-0.41
-0.26
-0.13
-0.13
-0.31
-0.62
-0.97
-1.21
-1.25
-1.04
-0.61
-0.08
0.44
0.82
0.99
0.94
0.75
0.47
0.19
-0.02
-0.13
-0.09
0.09
0.38
0.70
0.94
1.00
0.83
0.44
-0.08
-0.61
-1.04
-1.30
-1.39
-1.34
-1.20
-1.03
-0.87
-0.74
-0.63
-0.50
-0.31
-0.02
0.36
0.76
1.11
1.31
1.30
1.09
0.72
0.27
-0.18
-0.53
-0.73
-0.75
-0.61
-0.36
-0.08
0.19
0.41
0.56
0.63
0.64
0.57
0.45
0.28
0.11
-0.02
-0.07
-0.00
0.16
0.38
0.58
0.69
0.66
0.51
0.31
0.14
0.04
0.02
0.01
-0.04
-0.15
-0.27
-0.31
-0.23
-0.04
0.19
0.35
0.35
0.17
-0.11
-0.42
-0.64
-0.74
-0.73
-0.65
-0.54
-0.45
-0.37
-0.29
-0.20
-0.10
-0.00
0.06
0.05
-0.05
-0.22
-0.37
-0.43
-0.32
-0.07
0.25
0.51
0.65
0.62
0.46
0.24
0.02
-0.14
-0.22
-0.20
-0.07
0.15
0.41
0.64
0.77
0.76
0.62
0.42
0.24
0.14
0.12
0.16
0.18
0.14
0.02
-0.15
-0.33
-0.48
-0.54
-0.51
-0.40
-0.24
-0.07
0.04
0.07
0.00
-0.12
-0.26
-0.37
-0.43
-0.44
-0.42
-0.37
-0.30
-0.22
-0.15
-0.13
-0.19
-0.27
-0.32
-0.26
-0.06
0.26
0.59
0.82
0.85
0.66
0.28
-0.16
-0.54
-0.77
-0.79
-0.63
-0.36
-0.07
0.16
0.28
0.27
0.13
-0.10
-0.35
-0.53
-0.55
-0.35
0.05
0.55
1.02
1.34
1.45
1.37
1.15
0.88
0.63
0.42
0.27
0.18
0.11
0.04
-0.07
-0.22
-0.39
-0.52
-0.58
-0.52
-0.33
-0.03
0.32
0.63
0.81
0.83
0.71
0.53
0.38
0.30
0.26
0.21
0.12
0.01
-0.07
-0.07
0.00
0.04
-0.04
-0.31
-0.70
-1.10
-1.36
-1.40
-1.23
-0.96
-0.68
-0.48
-0.35
-0.24
-0.09
0.12
0.36
0.55
0.61
0.53
0.35
0.20
0.16
0.26
0.45
0.63
0.67
0.53
0.21
-0.18
-0.51
-0.69
-0.66
-0.44
-0.12
0.18
0.34
0.33
0.19
0.01
-0.13
-0.19
-0.23
-0.32
-0.47
-0.65
-0.74
-0.67
-0.41
-0.06
0.24
0.37
0.29
0.05
-0.20
-0.35
-0.35
-0.20
0.03
0.25
0.38
0.39
0.28
0.08
-0.16
-0.39
-0.52
-0.52
-0.38
-0.13
0.15
0.38
0.51
0.54
0.49
0.43
0.40
0.39
0.38
0.32
0.17
-0.04
-0.27
-0.48
-0.60
-0.62
-0.57
-0.45
-0.29
-0.12
0.06
0.25
0.42
0.54
0.59
0.56
0.43
0.21
-0.08
-0.40
-0.67
-0.83
-0.82
-0.65
-0.35
-0.00
0.31
0.53
0.65
0.71
0.78
0.86
0.93
0.92
0.76
0.44
0.00
-0.43
-0.73
-0.83
-0.74
-0.56
-0.38
-0.27
-0.22
-0.17
-0.08
0.07
0.22
0.34
0.40
0.40
0.37
0.33
0.25
0.10
-0.16
-0.50
-0.85
-1.09
-1.12
-0.92
-0.55
-0.12
0.24
0.42
0.40
0.21
-0.04
-0.23
-0.28
-0.15
0.10
0.36
0.55
0.61
0.55
0.40
0.19
-0.04
-0.27
-0.45
-0.52
-0.45
-0.25
-0.00
0.18
0.22
0.12
-0.05
-0.17
-0.18
-0.09
0.04
0.15
0.22
0.28
0.38
0.52
0.69
0.84
0.95
1.01
1.04
1.04
1.00
0.86
0.61
0.24
-0.18
-0.56
-0.83
-0.92
-0.85
-0.69
-0.52
-0.44
-0.47
-0.55
-0.61
-0.59
-0.46
-0.27
-0.08
0.06
0.17
0.25
0.30
0.29
0.16
-0.07
-0.31
-0.40
-0.23
0.20
0.71
1.08
1.13
0.82
0.28
-0.26
-0.62
-0.71
-0.59
-0.35
-0.09
0.13
0.30
0.42
0.47
0.41
0.22
-0.09
-0.40
-0.59
-0.60
-0.44
-0.24
-0.15
-0.24
-0.47
-0.68
-0.74
-0.56
-0.19
0.23
0.57
0.76
0.78
0.71
0.57
0.41
0.25
0.09
-0.04
-0.12
-0.15
-0.15
-0.12
-0.11
-0.13
-0.19
-0.27
-0.36
-0.39
-0.33
-0.16
0.11
0.40
0.67
0.84
0.87
0.76
0.51
0.21
-0.07
-0.24
-0.23
-0.08
0.15
0.34
0.40
0.28
0.02
-0.32
-0.62
-0.79
-0.78
-0.58
-0.25
0.08
0.29
0.28
0.07
-0.27
-0.59
-0.78
-0.78
-0.61
-0.33
-0.07
0.10
0.12
0.00
-0.19
-0.35
-0.44
-0.44
-0.38
-0.31
-0.23
-0.09
0.16
0.50
0.86
1.08
1.05
0.75
0.28
-0.18
-0.47
-0.55
-0.46
-0.33
-0.25
-0.27
-0.34
-0.39
-0.38
-0.32
-0.29
-0.35
-0.48
-0.64
-0.69
-0.56
-0.23
0.20
0.60
0.89
1.02
1.04
0.98
0.91
0.82
0.72
0.58
0.41
0.20
-0.02
-0.22
-0.40
-0.51
-0.56
-0.53
-0.44
-0.31
-0.15
0.04
0.25
0.45
0.56
0.51
0.26
-0.13
-0.53
-0.78
-0.78
-0.52
-0.10
0.31
0.59
0.68
0.63
0.52
0.40
0.29
0.14
-0.07
-0.34
-0.60
-0.78
-0.84
-0.75
-0.55
-0.29
-0.01
0.25
0.48
0.66
0.79
0.84
0.83
0.74
0.57
0.31
0.00
-0.32
-0.57
-0.70
-0.67
-0.52
-0.28
-0.02
0.25
0.50
0.73
0.91
1.00
0.98
0.84
0.62
0.41
0.28
0.26
0.33
0.40
0.40
0.23
-0.10
-0.52
-0.91
-1.12
-1.07
-0.80
-0.44
-0.19
-0.15
-0.32
-0.57
-0.70
-0.58
-0.20
0.28
0.65
0.74
0.54
0.15
-0.20
-0.35
-0.24
0.03
0.31
0.44
0.40
0.24
0.07
-0.06
-0.19
-0.38
-0.68
-1.03
-1.29
-1.36
-1.19
-0.84
-0.42
-0.05
0.22
0.41
0.50
0.50
0.40
0.22
0.02
-0.10
-0.07
0.10
0.37
0.62
0.78
0.80
0.66
0.41
0.08
-0.25
-0.52
-0.64
-0.58
-0.35
-0.02
0.33
0.57
0.67
0.62
0.47
0.29
0.17
0.12
0.15
0.18
0.15
0.03
-0.14
-0.29
-0.33
-0.24
-0.05
0.15
0.27
0.25
0.09
-0.13
-0.30
-0.33
-0.19
0.07
0.36
0.58
0.66
0.54
0.24
-0.16
-0.59
-0.93
-1.14
-1.21
-1.18
-1.11
-1.02
-0.93
-0.79
-0.58
-0.31
-0.04
0.15
0.24
0.25
0.23
0.26
0.36
0.50
0.63
0.70
0.65
0.50
0.32
0.18
0.12
0.15
0.20
0.21
0.15
0.03
-0.06
-0.04
0.11
0.35
0.55
0.62
0.55
0.42
0.33
0.33
0.37
0.34
0.18
-0.06
-0.25
-0.27
-0.07
0.23
0.48
0.52
0.35
0.06
-0.18
-0.27
-0.21
-0.07
0.02
-0.02
-0.17
-0.38
-0.58
-0.72
-0.77
-0.73
-0.63
-0.49
-0.32
-0.15
0.01
0.15
0.23
0.25
0.19
0.07
-0.05
-0.15
-0.20
-0.22
-0.22
-0.21
-0.15
-0.00
0.23
0.51
0.76
0.89
0.84
0.64
0.37
0.13
-0.02
-0.05
-0.00
0.09
0.18
0.21
0.15
-0.00
-0.22
-0.45
-0.64
-0.74
-0.74
-0.64
-0.49
-0.31
-0.13
0.02
0.12
0.16
0.12
0.02
-0.10
-0.21
-0.25
-0.22
-0.12
0.05
0.24
0.40
0.49
0.48
0.38
0.23
0.10
0.06
0.12
0.28
0.46
0.58
0.57
0.40
0.12
-0.17
-0.39
-0.44
-0.35
-0.23
-0.19
-0.30
-0.53
-0.74
-0.79
-0.58
-0.17
0.30
0.67
0.84
0.83
0.73
0.60
0.47
0.36
0.22
0.05
-0.11
-0.25
-0.34
-0.38
-0.37
-0.33
-0.29
-0.27
-0.28
-0.34
-0.41
-0.47
-0.49
-0.45
-0.38
-0.29
-0.20
-0.09
0.05
0.21
0.36
0.49
0.62
0.72
0.77
0.68
0.42
-0.00
-0.49
-0.89
-1.08
-0.99
-0.69
-0.31
0.03
0.26
0.36
0.35
0.26
0.13
0.02
-0.01
0.09
0.31
0.55
0.71
0.71
0.55
0.30
0.07
-0.08
-0.15
-0.18
-0.18
-0.12
0.06
0.38
0.79
1.15
1.26
1.01
0.42
-0.33
-0.98
-1.32
-1.27
-0.92
-0.46
-0.04
0.25
0.44
0.59
0.74
0.85
0.85
0.66
0.29
-0.18
-0.62
-0.91
-0.99
-0.90
-0.68
-0.42
-0.16
0.06
0.21
0.29
0.30
0.27
0.23
0.17
0.13
0.10
0.11
0.18
0.32
0.52
0.67
0.68
0.48
0.08
-0.41
-0.81
-1.02
-0.98
-0.76
-0.51
-0.32
-0.28
-0.34
-0.44
-0.51
-0.49
-0.37
-0.21
-0.05
0.04
0.02
-0.06
-0.15
-0.15
-0.01
0.26
0.56
0.78
0.85
0.77
0.61
0.46
0.39
0.37
0.35
0.25
0.03
-0.25
-0.49
-0.60
-0.53
-0.35
-0.18
-0.12
-0.23
-0.43
-0.57
-0.53
-0.27
0.11
0.41
0.49
0.34
0.10
-0.07
-0.09
-0.00
0.09
0.11
0.10
0.17
0.37
0.64
0.80
0.65
0.16
-0.52
-1.09
-1.32
-1.13
-0.67
-0.16
0.18
0.29
0.23
0.10
-0.01
-0.06
-0.06
-0.02
0.06
0.18
0.34
0.49
0.60
0.64
0.61
0.54
0.47
0.42
0.38
0.30
0.16
-0.05
-0.29
-0.49
-0.61
-0.61
-0.50
-0.33
-0.13
0.08
0.29
0.46
0.57
0.53
0.30
-0.08
-0.55
-0.97
-1.22
-1.22
-0.97
-0.54
-0.07
0.32
0.50
0.43
0.14
-0.21
-0.46
-0.47
-0.21
0.20
0.56
0.68
0.49
0.08
-0.36
-0.63
-0.63
-0.38
-0.03
0.28
0.45
0.50
0.48
0.46
0.44
0.40
0.30
0.14
-0.03
-0.13
-0.08
0.11
0.35
0.55
0.60
0.49
0.28
0.05
-0.11
-0.16
-0.12
-0.03
0.02
-0.00
-0.12
-0.29
-0.46
-0.55
-0.53
-0.41
-0.25
-0.11
-0.04
-0.03
-0.03
0.01
0.12
0.26
0.35
0.32
0.15
-0.12
-0.36
-0.46
-0.36
-0.10
0.22
0.50
0.65
0.67
0.59
0.50
0.45
0.45
0.50
0.54
0.52
0.42
0.23
-0.04
-0.32
-0.55
-0.67
-0.66
-0.53
-0.33
-0.09
0.14
0.33
0.46
0.50
0.45
0.31
0.10
-0.14
-0.32
-0.40
-0.32
-0.10
0.22
0.54
0.73
0.72
0.48
0.07
-0.37
-0.72
-0.86
-0.78
-0.53
-0.22
0.03
0.13
0.03
-0.21
-0.47
-0.62
-0.54
-0.25
0.15
0.51
0.68
0.60
0.32
-0.06
-0.42
-0.69
-0.83
-0.83
-0.68
-0.37
0.03
0.41
0.63
0.60
0.31
-0.12
-0.51
-0.73
-0.72
-0.54
-0.32
-0.18
-0.16
-0.23
-0.27
-0.20
-0.02
0.19
0.31
0.26
0.06
-0.18
-0.33
-0.28
-0.05
0.24
0.46
0.53
0.44
0.26
0.09
0.03
0.11
0.29
0.52
0.70
0.74
0.63
0.41
0.18
0.07
0.13
0.31
0.51
0.58
0.47
0.19
-0.14
-0.44
-0.66
-0.80
-0.88
-0.91
-0.84
-0.63
-0.27
0.17
0.58
0.86
0.97
0.90
0.73
0.48
0.19
-0.14
-0.46
-0.74
-0.91
-0.93
-0.80
-0.58
-0.33
-0.15
-0.10
-0.17
-0.33
-0.47
-0.49
-0.37
-0.14
0.08
0.17
0.10
-0.06
-0.20
-0.20
-0.04
0.20
0.41
0.51
0.50
0.44
0.37
0.29
0.18
0.03
-0.12
-0.17
-0.04
0.24
0.59
0.85
0.91
0.77
0.50
0.23
0.05
-0.04
-0.07
-0.11
-0.19
-0.29
-0.38
-0.42
-0.40
-0.36
-0.34
-0.39
-0.49
-0.62
-0.70
-0.66
-0.46
-0.12
0.27
0.59
0.72
0.62
0.31
-0.07
-0.41
-0.61
-0.63
-0.48
-0.23
0.06
0.33
0.51
0.57
0.49
0.33
0.18
0.11
0.18
0.34
0.48
0.50
0.36
0.10
-0.20
-0.45
-0.56
-0.53
-0.35
-0.05
0.32
0.67
0.91
0.95
0.75
0.34
-0.15
-0.56
-0.77
-0.76
-0.58
-0.37
-0.24
-0.20
-0.21
-0.21
-0.15
-0.05
0.04
0.09
0.12
0.22
0.42
0.72
1.00
1.10
0.98
0.68
0.35
0.12
0.06
0.10
0.14
0.09
-0.03
-0.14
-0.15
-0.04
0.14
0.29
0.33
0.21
-0.02
-0.26
-0.45
-0.55
-0.60
-0.66
-0.75
-0.87
-0.92
-0.82
-0.54
-0.11
0.33
0.65
0.76
0.68
0.46
0.19
-0.08
-0.33
-0.55
-0.72
-0.81
-0.85
-0.83
-0.80
-0.76
-0.67
-0.46
-0.10
0.37
0.85
1.23
1.38
1.27
0.92
0.43
-0.06
-0.42
-0.54
-0.39
-0.02
0.43
0.81
0.97
0.86
0.54
0.16
-0.14
-0.25
-0.19
-0.00
0.18
0.29
0.30
0.25
0.17
0.09
-0.03
-0.21
-0.44
-0.68
-0.83
-0.84
-0.73
-0.59
-0.53
-0.62
-0.84
-1.06
-1.16
-1.04
-0.70
-0.26
0.13
0.37
0.43
0.38
0.38
0.51
0.77
1.06
1.23
1.21
1.03
0.80
0.68
0.74
0.92
1.13
1.25
1.20
1.02
0.75
0.48
0.22
-0.02
-0.27
-0.56
-0.90
-1.24
-1.52
-1.67
-1.65
-1.50
-1.30
-1.12
-0.99
-0.89
-0.75
-0.52
-0.26
-0.06
-0.03
-0.18
-0.42
-0.55
-0.45
-0.09
0.40
0.82
1.03
1.03
0.90
0.80
0.85
1.05
1.29
1.43
1.34
0.99
0.44
-0.15
-0.61
-0.82
-0.74
-0.48
-0.18
0.02
0.04
-0.10
-0.34
-0.56
-0.68
-0.66
-0.52
-0.28
0.01
0.27
0.42
0.40
0.20
-0.11
-0.47
-0.78
-1.01
-1.14
-1.17
-1.07
-0.80
-0.39
0.09
0.52
0.75
0.73
0.49
0.15
-0.11
-0.17
0.04
0.42
0.84
1.13
1.24
1.16
0.99
0.81
0.66
0.52
0.37
0.18
-0.01
-0.13
-0.16
-0.10
-0.02
0.02
0.02
0.01
0.06
0.19
0.31
0.34
0.20
-0.12
-0.48
-0.73
-0.72
-0.42
0.07
0.56
0.86
0.88
0.64
0.25
-0.13
-0.41
-0.56
-0.61
-0.59
-0.51
-0.35
-0.13
0.10
0.22
0.17
-0.07
-0.43
-0.76
-0.93
-0.92
-0.77
-0.59
-0.45
-0.33
-0.19
-0.00
0.20
0.35
0.40
0.34
0.27
0.29
0.40
0.55
0.60
0.45
0.09
-0.36
-0.70
-0.81
-0.62
-0.22
0.24
0.63
0.85
0.87
0.73
0.50
0.24
-0.00
-0.23
-0.41
-0.53
-0.57
-0.51
-0.37
-0.25
-0.22
-0.33
-0.54
-0.75
-0.85
-0.79
-0.61
-0.41
-0.28
-0.24
-0.24
-0.19
-0.05
0.17
0.37
0.49
0.49
0.39
0.26
0.17
0.16
0.21
0.25
0.23
0.14
0.02
-0.08
-0.10
0.01
0.21
0.45
0.65
0.74
0.69
0.54
0.37
0.24
0.22
0.29
0.40
0.49
0.51
0.43
0.28
0.10
-0.07
-0.21
-0.31
-0.36
-0.36
-0.29
-0.17
-0.01
0.13
0.20
0.16
0.04
-0.10
-0.18
-0.19
-0.17
-0.20
-0.38
-0.72
-1.13
-1.46
-1.56
-1.32
-0.78
-0.05
0.69
1.29
1.66
1.76
1.63
1.33
0.91
0.48
0.11
-0.10
-0.11
0.05
0.28
0.45
0.48
0.34
0.12
-0.09
-0.26
-0.39
-0.53
-0.73
-0.93
-1.07
-1.07
-0.92
-0.70
-0.50
-0.38
-0.36
-0.37
-0.35
-0.29
-0.20
-0.13
-0.13
-0.20
-0.30
-0.37
-0.38
-0.29
-0.09
0.19
0.49
0.74
0.83
0.74
0.47
0.15
-0.09
-0.13
0.03
0.33
0.63
0.80
0.79
0.63
0.39
0.16
-0.03
-0.16
-0.23
-0.23
-0.13
0.05
0.26
0.41
0.45
0.35
0.17
0.00
-0.06
-0.00
0.13
0.22
0.18
-0.03
-0.32
-0.54
-0.55
-0.31
0.08
0.44
0.60
0.50
0.21
-0.12
-0.31
-0.33
-0.24
-0.20
-0.31
-0.57
-0.86
-0.98
-0.82
-0.37
0.22
0.75
1.03
1.00
0.72
0.34
-0.01
-0.22
-0.28
-0.22
-0.13
-0.08
-0.08
-0.11
-0.14
-0.11
-0.04
0.05
0.08
0.03
-0.08
-0.18
-0.22
-0.15
0.00
0.18
0.31
0.33
0.21
-0.07
-0.46
-0.91
-1.26
-1.38
-1.16
-0.62
0.09
0.74
1.13
1.18
0.96
0.61
0.29
0.08
-0.02
-0.03
0.03
0.13
0.31
0.52
0.71
0.81
0.79
0.66
0.45
0.21
-0.03
-0.23
-0.35
-0.36
-0.24
-0.04
0.19
0.32
0.29
0.08
-0.23
-0.55
-0.80
-0.94
-0.96
-0.86
-0.68
-0.45
-0.24
-0.08
0.00
0.05
0.13
0.27
0.49
0.73
0.92
1.01
0.97
0.86
0.72
0.57
0.41
0.20
-0.10
-0.45
-0.82
-1.10
-1.23
-1.18
-0.97
-0.69
-0.43
-0.25
-0.16
-0.14
-0.14
-0.15
-0.16
-0.17
-0.16
-0.09
0.05
0.26
0.47
0.60
0.60
0.50
0.33
0.17
0.06
0.02
0.02
0.05
0.05
-0.02
-0.18
-0.39
-0.58
-0.65
-0.50
-0.16
0.29
0.72
1.00
1.05
0.87
0.50
0.01
-0.51
-0.95
-1.19
-1.14
-0.77
-0.15
0.57
1.21
1.59
1.62
1.31
0.76
0.11
-0.47
-0.86
-1.01
-0.93
-0.68
-0.36
-0.05
0.19
0.32
0.32
0.20
-0.01
-0.25
-0.43
-0.49
-0.44
-0.32
-0.23
-0.22
-0.31
-0.43
-0.49
-0.44
-0.25
0.02
0.31
0.55
0.70
0.74
0.69
0.56
0.36
0.12
-0.14
-0.38
-0.58
-0.69
-0.69
-0.54
-0.26
0.11
0.47
0.71
0.78
0.68
0.47
0.28
0.21
0.29
0.48
0.68
0.81
0.84
0.76
0.62
0.45
0.26
0.04
-0.22
-0.47
-0.64
-0.65
-0.51
-0.27
-0.04
0.07
0.03
-0.12
-0.26
-0.29
-0.18
0.01
0.15
0.14
-0.06
-0.39
-0.73
-0.96
-1.03
-0.96
-0.81
-0.66
-0.53
-0.40
-0.24
-0.03
0.20
0.39
0.52
0.54
0.47
0.36
0.25
0.18
0.15
0.17
0.23
0.33
0.48
0.62
0.70
0.66
0.47
0.18
-0.08
-0.22
-0.18
0.00
0.18
0.22
0.02
-0.37
-0.83
-1.22
-1.43
-1.44
-1.28
-1.00
-0.68
-0.36
-0.08
0.13
0.24
0.27
0.23
0.19
0.19
0.25
0.37
0.53
0.71
0.84
0.91
0.85
0.65
0.30
-0.11
-0.48
-0.68
-0.65
-0.42
-0.12
0.09
0.12
0.01
-0.10
-0.07
0.16
0.51
0.81
0.91
0.75
0.41
0.06
-0.15
-0.14
0.05
0.31
0.50
0.52
0.37
0.13
-0.08
-0.19
-0.13
0.04
0.26
0.43
0.49
0.42
0.28
0.12
-0.00
-0.05
-0.05
-0.02
-0.03
-0.11
-0.26
-0.44
-0.56
-0.57
-0.48
-0.34
-0.23
-0.19
-0.21
-0.22
-0.18
-0.08
0.03
0.08
0.02
-0.13
-0.34
-0.54
-0.73
-0.86
-0.93
-0.85
-0.57
-0.10
0.45
0.91
1.08
0.92
0.48
-0.03
-0.40
-0.51
-0.39
-0.14
0.09
0.20
0.19
0.10
-0.00
-0.06
-0.07
-0.05
-0.02
0.01
0.03
0.02
-0.02
-0.11
-0.21
-0.30
-0.33
-0.29
-0.21
-0.15
-0.13
-0.15
-0.18
-0.18
-0.15
-0.11
-0.08
-0.07
-0.05
0.01
0.12
0.24
0.33
0.34
0.31
0.27
0.29
0.37
0.47
0.53
0.52
0.45
0.37
0.34
0.41
0.57
0.78
0.96
1.00
0.85
0.51
0.05
-0.40
-0.71
-0.86
-0.85
-0.78
-0.72
-0.70
-0.71
-0.67
-0.57
-0.41
-0.24
-0.12
-0.07
-0.05
0.01
0.17
0.42
0.70
0.91
0.99
0.91
0.72
0.49
0.29
0.14
0.05
-0.03
-0.08
-0.10
-0.04
0.10
0.28
0.41
0.44
0.34
0.18
0.04
-0.00
0.04
0.10
0.08
-0.06
-0.25
-0.40
-0.41
-0.29
-0.15
-0.12
-0.25
-0.49
-0.66
-0.63
-0.37
0.02
0.37
0.57
0.58
0.45
0.27
0.08
-0.11
-0.28
-0.42
-0.48
-0.40
-0.21
0.04
0.26
0.37
0.37
0.28
0.16
0.00
-0.20
-0.48
-0.78
-1.05
-1.19
-1.16
-1.01
-0.85
-0.76
-0.77
-0.80
-0.76
-0.60
-0.32
-0.04
0.16
0.25
0.24
0.20
0.17
0.17
0.19
0.23
0.31
0.44
0.62
0.81
0.96
1.02
1.01
0.95
0.87
0.80
0.73
0.63
0.51
0.37
0.25
0.15
0.07
0.00
-0.04
-0.10
-0.20
-0.37
-0.63
-0.91
-1.10
-1.13
-0.98
-0.69
-0.38
-0.14
-0.03
-0.01
-0.04
-0.06
-0.03
0.02
0.09
0.17
0.26
0.35
0.39
0.37
0.25
0.06
-0.13
-0.22
-0.14
0.14
0.55
0.96
1.22
1.22
0.98
0.59
0.19
-0.09
-0.25
-0.31
-0.35
-0.38
-0.40
-0.37
-0.26
-0.09
0.06
0.12
0.07
-0.08
-0.25
-0.34
-0.29
-0.08
0.23
0.54
0.77
0.84
0.76
0.58
0.34
0.11
-0.11
-0.30
-0.46
-0.59
-0.65
-0.66
-0.59
-0.46
-0.25
-0.01
0.26
0.46
0.52
0.38
0.02
-0.48
-1.00
-1.42
-1.64
-1.61
-1.37
-1.00
-0.57
-0.15
0.21
0.48
0.65
0.72
0.68
0.56
0.39
0.22
0.11
0.09
0.19
0.39
0.61
0.76
0.77
0.63
0.42
0.25
0.24
0.38
0.58
0.71
0.67
0.44
0.09
-0.28
-0.60
-0.83
-0.97
-1.05
-1.06
-1.00
-0.86
-0.67
-0.46
-0.31
-0.23
-0.24
-0.35
-0.49
-0.62
-0.69
-0.62
-0.40
-0.04
0.38
0.78
1.08
1.22
1.20
1.01
0.71
0.33
-0.07
-0.41
-0.62
-0.65
-0.48
-0.15
0.23
0.54
0.65
0.52
0.18
-0.22
-0.55
-0.69
-0.61
-0.35
-0.02
0.30
0.54
0.66
0.69
0.63
0.55
0.49
0.47
0.52
0.62
0.73
0.82
0.86
0.83
0.75
0.58
0.35
0.05
-0.26
-0.53
-0.72
-0.81
-0.83
-0.86
-0.92
-1.00
-1.03
-0.97
-0.76
-0.45
-0.11
0.14
0.26
0.24
0.14
0.06
0.07
0.17
0.32
0.40
0.35
0.16
-0.07
-0.23
-0.27
-0.20
-0.12
-0.12
-0.22
-0.35
-0.39
-0.25
0.04
0.37
0.62
0.68
0.59
0.42
0.28
0.21
0.18
0.13
0.06
-0.01
-0.00
0.13
0.38
0.66
0.86
0.90
0.76
0.47
0.11
-0.25
-0.59
-0.87
-1.11
-1.27
-1.34
-1.28
-1.11
-0.85
-0.57
-0.32
-0.13
0.00
0.12
0.27
0.46
0.65
0.76
0.73
0.56
0.33
0.14
0.08
0.16
0.31
0.42
0.43
0.35
0.25
0.21
0.27
0.41
0.54
0.60
0.55
0.47
0.42
0.46
0.57
0.63
0.57
0.34
0.01
-0.31
-0.52
-0.58
-0.54
-0.50
-0.52
-0.60
-0.72
-0.83
-0.89
-0.88
-0.80
-0.67
-0.49
-0.31
-0.16
-0.05
0.03
0.10
0.19
0.29
0.36
0.34
0.20
-0.05
-0.34
-0.60
-0.76
-0.77
-0.64
-0.42
-0.19
-0.04
-0.00
-0.07
-0.19
-0.29
-0.32
-0.26
-0.12
0.09
0.33
0.56
0.71
0.75
0.64
0.44
0.20
0.01
-0.11
-0.15
-0.15
-0.16
-0.13
-0.03
0.20
0.54
0.91
1.19
1.27
1.11
0.75
0.31
-0.05
-0.25
-0.27
-0.19
-0.12
-0.15
-0.29
-0.47
-0.58
-0.56
-0.40
-0.14
0.16
0.47
0.74
0.95
1.03
0.93
0.62
0.18
-0.25
-0.52
-0.55
-0.36
-0.07
0.16
0.22
0.10
-0.16
-0.49
-0.82
-1.08
-1.24
-1.29
-1.19
-0.98
-0.71
-0.43
-0.19
-0.00
0.15
0.29
0.44
0.58
0.72
0.85
0.98
1.10
1.19
1.19
1.02
0.65
0.14
-0.38
-0.75
-0.89
-0.80
-0.57
-0.31
-0.10
0.05
0.16
0.24
0.28
0.22
0.03
-0.27
-0.58
-0.82
-0.88
-0.72
-0.41
-0.03
0.29
0.47
0.48
0.37
0.26
0.25
0.39
0.61
0.79
0.76
0.48
0.02
-0.49
-0.88
-1.07
-1.07
-0.91
-0.63
-0.23
0.28
0.82
1.26
1.43
1.25
0.73
0.05
-0.55
-0.91
-0.96
-0.78
-0.48
-0.20
0.01
0.11
0.12
0.05
-0.08
-0.20
-0.24
-0.17
0.01
0.23
0.36
0.31
0.05
-0.35
-0.76
-1.04
-1.06
-0.78
-0.28
0.34
0.89
1.20
1.18
0.86
0.36
-0.11
-0.41
-0.47
-0.31
-0.03
0.26
0.46
0.55
0.53
0.43
0.27
0.06
-0.15
-0.34
-0.45
-0.47
-0.41
-0.32
-0.23
-0.18
-0.17
-0.17
-0.16
-0.12
-0.06
-0.03
-0.05
-0.12
-0.20
-0.22
-0.12
0.07
0.29
0.43
0.41
0.24
-0.01
-0.25
-0.40
-0.45
-0.44
-0.42
-0.41
-0.39
-0.30
-0.13
0.07
0.26
0.37
0.39
0.38
0.39
0.46
0.58
0.69
0.75
0.70
0.55
0.34
0.14
0.03
0.05
0.16
0.32
0.42
0.41
0.27
0.05
-0.19
-0.40
-0.56
-0.67
-0.72
-0.65
-0.44
-0.08
0.35
0.66
0.72
0.45
-0.06
-0.64
-1.06
-1.17
-0.96
-0.51
0.01
0.45
0.70
0.73
0.57
0.28
-0.06
-0.33
-0.49
-0.49
-0.39
-0.24
-0.12
-0.07
-0.10
-0.19
-0.33
-0.52
-0.75
-0.94
-0.99
-0.82
-0.39
0.21
0.83
1.27
1.41
1.26
0.93
0.56
0.24
0.02
-0.12
-0.21
-0.27
-0.26
-0.19
-0.07
0.07
0.17
0.21
0.21
0.17
0.12
0.07
0.01
-0.04
-0.05
0.02
0.19
0.44
0.68
0.82
0.82
0.66
0.39
0.11
-0.10
-0.19
-0.15
-0.01
0.16
0.26
0.21
-0.04
-0.46
-0.91
-1.23
-1.27
-1.01
-0.53
-0.01
0.35
0.48
0.40
0.26
0.16
0.17
0.24
0.25
0.13
-0.10
-0.34
-0.44
-0.33
-0.04
0.31
0.58
0.71
0.70
0.62
0.54
0.48
0.44
0.38
0.28
0.14
-0.01
-0.11
-0.12
-0.03
0.14
0.34
0.46
0.46
0.31
0.03
-0.31
-0.64
-0.88
-0.98
-0.94
-0.80
-0.63
-0.51
-0.49
-0.60
-0.80
-1.05
-1.26
-1.36
-1.29
-1.00
-0.56
-0.05
0.38
0.62
0.63
0.47
0.27
0.13
0.12
0.21
0.32
0.39
0.35
0.22
0.06
-0.07
-0.10
-0.04
0.07
0.16
0.22
0.24
0.27
0.32
0.35
0.27
0.05
-0.27
-0.57
-0.70
-0.57
-0.21
0.26
0.67
0.93
1.02
0.96
0.81
0.64
0.47
0.34
0.27
0.29
0.37
0.49
0.58
0.60
0.52
0.34
0.10
-0.17
-0.39
-0.55
-0.63
-0.66
-0.65
-0.61
-0.51
-0.32
-0.06
0.19
0.35
0.37
0.24
0.06
-0.09
-0.16
-0.15
-0.10
-0.06
-0.03
-0.03
-0.03
-0.03
-0.05
-0.08
-0.13
-0.19
-0.23
-0.27
-0.30
-0.37
-0.44
-0.48
-0.44
-0.28
0.01
0.37
0.70
0.89
0.92
0.80
0.63
0.52
0.49
0.50
0.45
0.27
-0.04
-0.40
-0.69
-0.83
-0.81
-0.69
-0.56
-0.42
-0.28
-0.12
0.06
0.18
0.17
-0.02
-0.33
-0.64
-0.83
-0.80
-0.57
-0.24
0.08
0.27
0.27
0.09
-0.20
-0.48
-0.64
-0.59
-0.31
0.11
0.53
0.79
0.83
0.68
0.44
0.23
0.12
0.12
0.14
0.15
0.12
0.05
-0.01
-0.02
0.01
0.07
0.13
0.20
0.30
0.44
0.62
0.78
0.84
0.73
0.45
0.07
-0.31
-0.55
-0.61
-0.49
-0.23
0.04
0.27
0.38
0.35
0.19
-0.06
-0.35
-0.60
-0.75
-0.76
-0.63
-0.37
-0.07
0.23
0.45
0.55
0.50
0.31
0.04
-0.23
-0.44
-0.54
-0.52
-0.41
-0.25
-0.10
-0.01
0.02
-0.00
-0.06
-0.08
-0.05
0.05
0.18
0.28
0.28
0.15
-0.11
-0.41
-0.67
-0.80
-0.78
-0.63
-0.42
-0.20
-0.01
0.14
0.28
0.42
0.56
0.68
0.75
0.77
0.73
0.62
0.47
0.29
0.13
0.04
0.06
0.20
0.38
0.52
0.53
0.39
0.18
0.00
-0.06
-0.01
0.12
0.24
0.31
0.29
0.21
0.11
0.02
-0.03
-0.04
-0.01
0.02
-0.01
-0.16
-0.41
-0.68
-0.83
-0.75
-0.43
0.01
0.40
0.58
0.54
0.36
0.18
0.11
0.17
0.33
0.51
0.63
0.67
0.62
0.47
0.20
-0.18
-0.62
-1.04
-1.34
-1.44
-1.28
-0.91
-0.42
0.04
0.33
0.37
0.18
-0.15
-0.47
-0.68
-0.72
-0.62
-0.45
-0.23
0.02
0.32
0.64
0.92
1.04
0.93
0.59
0.14
-0.25
-0.44
-0.38
-0.13
0.16
0.36
0.38
0.25
0.06
-0.11
-0.18
-0.13
0.01
0.15
0.24
0.21
0.10
-0.06
-0.22
-0.33
-0.41
-0.48
-0.56
-0.64
-0.66
-0.57
-0.37
-0.13
0.08
0.18
0.18
0.14
0.10
0.09
0.08
0.03
-0.05
-0.11
-0.10
-0.03
0.05
0.07
-0.02
-0.19
-0.35
-0.42
-0.38
-0.27
-0.16
-0.13
-0.18
-0.26
-0.35
-0.41
-0.45
-0.48
-0.48
-0.42
-0.23
0.07
0.46
0.84
1.11
1.20
1.11
0.88
0.60
0.36
0.22
0.21
0.28
0.42
0.55
0.63
0.64
0.59
0.49
0.38
0.25
0.10
-0.09
-0.33
-0.56
-0.72
-0.76
-0.67
-0.49
-0.29
-0.16
-0.12
-0.18
-0.27
-0.37
-0.43
-0.42
-0.33
-0.18
-0.00
0.17
0.31
0.41
0.47
0.49
0.46
0.34
0.13
-0.14
-0.37
-0.48
-0.43
-0.26
-0.07
0.02
-0.03
-0.15
-0.23
-0.16
0.05
0.35
0.62
0.75
0.74
0.63
0.52
0.44
0.40
0.39
0.38
0.42
0.55
0.78
1.06
1.24
1.21
0.88
0.29
-0.42
-1.05
-1.44
-1.49
-1.22
-0.75
-0.25
0.12
0.29
0.25
0.06
-0.16
-0.33
-0.39
-0.37
-0.31
-0.24
-0.18
-0.13
-0.10
-0.12
-0.21
-0.36
-0.53
-0.64
-0.64
-0.52
-0.32
-0.13
-0.02
-0.03
-0.16
-0.34
-0.52
-0.63
-0.63
-0.52
-0.36
-0.19
-0.03
0.10
0.25
0.41
0.56
0.64
0.59
0.43
0.20
0.03
0.01
0.17
0.42
0.62
0.65
0.48
0.16
-0.20
-0.46
-0.56
-0.50
-0.31
-0.09
0.10
0.18
0.16
0.08
0.00
-0.03
-0.00
0.06
0.11
0.12
0.10
0.09
0.14
0.26
0.44
0.63
0.77
0.81
0.78
0.70
0.61
0.54
0.45
0.30
0.09
-0.17
-0.40
-0.55
-0.57
-0.50
-0.41
-0.35
-0.37
-0.44
-0.48
-0.44
-0.31
-0.15
-0.04
-0.06
-0.20
-0.41
-0.58
-0.61
-0.44
-0.14
0.18
0.38
0.37
0.18
-0.09
-0.28
-0.30
-0.11
0.18
0.47
0.67
0.74
0.72
0.64
0.52
0.39
0.25
0.14
0.12
0.19
0.34
0.48
0.52
0.39
0.12
-0.22
-0.51
-0.65
-0.59
-0.37
-0.10
0.11
0.18
0.09
-0.10
-0.32
-0.52
-0.67
-0.75
-0.73
-0.56
-0.22
0.25
0.70
0.97
0.93
0.55
-0.04
-0.68
-1.14
-1.31
-1.17
-0.78
-0.28
0.16
0.47
0.59
0.58
0.52
0.50
0.53
0.55
0.48
0.29
0.03
-0.18
-0.23
-0.07
0.23
0.53
0.68
0.65
0.48
0.26
0.07
-0.06
-0.17
-0.32
-0.51
-0.72
-0.87
-0.89
-0.77
-0.55
-0.31
-0.11
-0.03
-0.06
-0.18
-0.35
-0.51
-0.64
-0.71
-0.71
-0.66
-0.53
-0.33
-0.07
0.20
0.43
0.54
0.50
0.30
-0.01
-0.34
-0.60
-0.72
-0.70
-0.57
-0.38
-0.18
0.01
0.18
0.37
0.57
0.81
1.04
1.21
1.27
1.15
0.84
0.39
-0.10
-0.46
-0.58
-0.42
-0.07
0.31
0.55
0.56
0.38
0.14
-0.03
-0.05
0.05
0.20
0.34
0.41
0.44
0.43
0.41
0.38
0.33
0.28
0.23
0.23
0.26
0.31
0.33
0.27
0.14
-0.07
-0.30
-0.51
-0.66
-0.71
-0.67
-0.52
-0.27
0.03
0.36
0.63
0.78
0.76
0.56
0.24
-0.11
-0.42
-0.60
-0.65
-0.60
-0.52
-0.48
-0.49
-0.53
-0.56
-0.52
-0.40
-0.21
-0.00
0.19
0.32
0.40
0.46
0.49
0.52
0.50
0.42
0.27
0.08
-0.12
-0.26
-0.27
-0.13
0.15
0.47
0.73
0.76
0.51
0.00
-0.59
-1.01
-1.09
-0.78
-0.24
0.24
0.44
0.29
-0.07
-0.40
-0.48
-0.31
-0.04
0.12
0.03
-0.28
-0.64
-0.85
-0.81
-0.56
-0.26
-0.04
0.02
-0.05
-0.18
-0.27
-0.25
-0.13
0.06
0.30
0.53
0.75
0.91
0.98
0.94
0.77
0.49
0.15
-0.18
-0.41
-0.49
-0.40
-0.18
0.11
0.39
0.62
0.78
0.85
0.85
0.78
0.66
0.50
0.27
-0.01
-0.33
-0.65
-0.89
-0.98
-0.92
-0.73
-0.49
-0.31
-0.20
-0.14
-0.09
-0.01
0.10
0.17
0.16
0.05
-0.07
-0.12
-0.02
0.18
0.36
0.36
0.09
-0.40
-0.93
-1.26
-1.24
-0.85
-0.23
0.39
0.79
0.89
0.70
0.36
0.02
-0.22
-0.31
-0.29
-0.23
-0.19
-0.20
-0.24
-0.26
-0.23
-0.11
0.05
0.16
0.19
0.12
0.02
-0.03
0.01
0.09
0.15
0.12
0.00
-0.12
-0.12
0.08
0.41
0.73
0.87
0.75
0.45
0.16
0.04
0.16
0.42
0.65
0.66
0.43
0.07
-0.20
-0.23
0.03
0.45
0.81
0.94
0.76
0.37
-0.09
-0.46
-0.65
-0.70
-0.68
-0.68
-0.69
-0.67
-0.58
-0.41
-0.21
-0.05
0.00
-0.05
-0.18
-0.31
-0.38
-0.33
-0.18
0.03
0.25
0.45
0.59
0.69
0.74
0.77
0.78
0.72
0.56
0.29
-0.08
-0.46
-0.75
-0.88
-0.85
-0.70
-0.52
-0.39
-0.31
-0.23
-0.12
0.04
0.17
0.21
0.09
-0.15
-0.41
-0.58
-0.61
-0.50
-0.30
-0.06
0.18
0.40
0.56
0.64
0.61
0.48
0.31
0.20
0.22
0.34
0.50
0.58
0.48
0.20
-0.18
-0.56
-0.85
-1.00
-1.00
-0.89
-0.71
-0.48
-0.26
-0.08
0.02
0.00
-0.10
-0.24
-0.34
-0.36
-0.28
-0.13
0.05
0.21
0.31
0.34
0.31
0.23
0.16
0.13
0.16
0.23
0.32
0.40
0.49
0.62
0.80
1.02
1.19
1.20
0.98
0.57
0.10
-0.27
-0.43
-0.39
-0.26
-0.15
-0.13
-0.20
-0.28
-0.32
-0.33
-0.39
-0.57
-0.89
-1.25
-1.47
-1.43
-1.09
-0.55
-0.01
0.37
0.54
0.53
0.47
0.45
0.50
0.55
0.57
0.54
0.48
0.41
0.33
0.21
-0.00
-0.29
-0.59
-0.80
-0.80
-0.60
-0.27
0.06
0.26
0.29
0.18
0.03
-0.08
-0.12
-0.10
-0.08
-0.05
0.02
0.16
0.40
0.67
0.88
0.94
0.83
0.60
0.36
0.22
0.20
0.25
0.28
0.19
-0.02
-0.28
-0.46
-0.44
-0.22
0.14
0.49
0.73
0.76
0.60
0.28
-0.11
-0.53
-0.91
-1.20
-1.33
-1.26
-0.97
-0.53
-0.04
0.36
0.57
0.57
0.42
0.22
0.06
-0.02
-0.01
0.05
0.11
0.17
0.22
0.28
0.33
0.32
0.20
-0.05
-0.38
-0.70
-0.89
-0.89
-0.70
-0.40
-0.09
0.12
0.22
0.21
0.14
0.04
-0.09
-0.21
-0.32
-0.36
-0.30
-0.13
0.14
0.43
0.67
0.78
0.75
0.57
0.32
0.07
-0.09
-0.13
-0.07
0.02
0.05
-0.01
-0.12
-0.21
-0.21
-0.08
0.14
0.35
0.48
0.47
0.34
0.15
-0.05
-0.22
-0.36
-0.50
-0.67
-0.85
-0.98
-1.00
-0.87
-0.57
-0.18
0.21
0.49
0.62
0.58
0.45
0.32
0.27
0.33
0.45
0.55
0.53
0.37
0.11
-0.13
-0.24
-0.18
0.02
0.26
0.45
0.52
0.46
0.29
0.03
-0.29
-0.65
-0.97
-1.15
-1.12
-0.87
-0.44
0.02
0.40
0.65
0.76
0.80
0.79
0.76
0.68
0.56
0.38
0.21
0.04
-0.08
-0.15
-0.16
-0.11
-0.01
0.14
0.29
0.39
0.42
0.35
0.18
-0.04
-0.28
-0.48
-0.60
-0.61
-0.54
-0.46
-0.42
-0.44
-0.49
-0.48
-0.36
-0.11
0.20
0.44
0.53
0.44
0.22
0.01
-0.09
-0.00
0.23
0.49
0.66
0.67
0.53
0.33
0.16
0.09
0.09
0.12
0.13
0.13
0.16
0.22
0.28
0.25
0.07
-0.26
-0.66
-0.99
-1.13
-1.06
-0.83
-0.52
-0.25
-0.04
0.09
0.15
0.15
0.11
0.02
-0.10
-0.21
-0.25
-0.19
-0.05
0.09
0.18
0.15
0.01
-0.18
-0.32
-0.35
-0.27
-0.16
-0.08
-0.09
-0.16
-0.20
-0.17
-0.07
0.06
0.15
0.16
0.14
0.12
0.13
0.16
0.19
0.19
0.20
0.26
0.38
0.53
0.61
0.54
0.31
-0.01
-0.29
-0.43
-0.40
-0.28
-0.15
-0.09
-0.12
-0.20
-0.29
-0.37
-0.46
-0.57
-0.68
-0.74
-0.68
-0.49
-0.20
0.12
0.39
0.58
0.74
0.89
1.05
1.16
1.14
0.90
0.48
-0.03
-0.45
-0.64
-0.56
-0.29
0.03
0.27
0.40
0.44
0.45
0.47
0.48
0.43
0.27
0.05
-0.17
-0.32
-0.34
-0.27
-0.16
-0.06
-0.00
0.01
0.01
-0.02
-0.07
-0.16
-0.27
-0.37
-0.43
-0.45
-0.45
-0.45
-0.45
-0.40
-0.30
-0.13
0.07
0.21
0.26
0.20
0.09
0.01
0.01
0.08
0.16
0.20
0.19
0.13
0.09
0.09
0.15
0.23
0.31
0.36
0.39
0.38
0.30
0.13
-0.11
-0.38
-0.58
-0.65
-0.54
-0.30
0.00
0.27
0.46
0.55
0.59
0.61
0.61
0.53
0.33
0.01
-0.38
-0.68
-0.79
-0.68
-0.42
-0.17
-0.04
-0.04
-0.06
-0.00
0.20
0.47
0.70
0.77
0.69
0.52
0.37
0.28
0.24
0.17
0.03
-0.14
-0.29
-0.37
-0.36
-0.31
-0.25
-0.24
-0.27
-0.34
-0.42
-0.45
-0.39
-0.22
0.01
0.22
0.31
0.24
0.05
-0.14
-0.23
-0.16
-0.00
0.12
0.13
-0.01
-0.21
-0.38
-0.46
-0.48
-0.47
-0.50
-0.53
-0.49
-0.32
-0.02
0.33
0.60
0.68
0.54
0.24
-0.12
-0.42
-0.62
-0.71
-0.71
-0.64
-0.50
-0.28
-0.00
0.28
0.49
0.56
0.49
0.35
0.21
0.14
0.17
0.28
0.42
0.50
0.49
0.39
0.25
0.12
0.03
0.01
0.03
0.05
0.04
0.01
-0.03
-0.05
-0.04
0.02
0.12
0.25
0.39
0.53
0.60
0.55
0.35
0.05
-0.25
-0.42
-0.37
-0.10
0.29
0.64
0.81
0.73
0.45
0.07
-0.27
-0.50
-0.60
-0.59
-0.55
-0.54
-0.60
-0.73
-0.90
-1.07
-1.14
-1.05
-0.76
-0.30
0.25
0.76
1.12
1.26
1.18
0.93
0.58
0.20
-0.14
-0.40
-0.52
-0.48
-0.27
0.06
0.40
0.64
0.69
0.53
0.22
-0.12
-0.39
-0.51
-0.48
-0.35
-0.18
-0.02
0.11
0.19
0.22
0.20
0.11
-0.02
-0.15
-0.23
-0.22
-0.13
0.02
0.16
0.28
0.39
0.51
0.64
0.76
0.79
0.64
0.30
-0.18
-0.66
-1.04
-1.22
-1.18
-0.97
-0.63
-0.23
0.15
0.46
0.64
0.65
0.50
0.25
-0.03
-0.29
-0.50
-0.66
-0.79
-0.88
-0.90
-0.82
-0.59
-0.21
0.26
0.74
1.09
1.23
1.12
0.83
0.47
0.18
0.06
0.07
0.13
0.12
-0.01
-0.23
-0.47
-0.68
-0.84
-0.95
-1.03
-1.02
-0.87
-0.52
-0.03
0.52
0.98
1.23
1.21
0.95
0.55
0.11
-0.24
-0.45
-0.49
-0.42
-0.31
-0.27
-0.33
-0.46
-0.57
-0.56
-0.36
-0.01
0.39
0.73
0.93
0.95
0.84
0.66
0.47
0.33
0.22
0.11
-0.01
-0.15
-0.25
-0.26
-0.14
0.10
0.35
0.49
0.43
0.23
-0.01
-0.13
-0.07
0.14
0.38
0.51
0.50
0.39
0.25
0.13
0.05
-0.03
-0.11
-0.14
-0.06
0.14
0.39
0.53
0.46
0.13
-0.37
-0.88
-1.25
-1.39
-1.28
-0.99
-0.61
-0.24
0.03
0.20
0.28
0.31
0.33
0.37
0.39
0.39
0.35
0.29
0.20
0.08
-0.07
-0.23
-0.35
-0.34
-0.17
0.12
0.39
0.46
0.25
-0.20
-0.72
-1.11
-1.22
-1.03
-0.64
-0.23
0.06
0.19
0.20
0.17
0.18
0.24
0.32
0.38
0.38
0.31
0.23
0.20
0.23
0.30
0.30
0.20
-0.02
-0.29
-0.51
-0.61
-0.62
-0.60
-0.62
-0.73
-0.89
-1.01
-1.00
-0.79
-0.41
0.08
0.54
0.82
0.84
0.61
0.22
-0.14
-0.31
-0.19
0.20
0.74
1.30
1.72
1.93
1.86
1.55
1.04
0.44
-0.15
-0.62
-0.93
-1.03
-0.93
-0.65
-0.24
0.21
0.58
0.74
0.65
0.35
-0.01
-0.27
-0.31
-0.11
0.21
0.47
0.53
0.32
-0.10
-0.59
-1.01
-1.24
-1.25
-1.10
-0.87
-0.65
-0.49
-0.39
-0.36
-0.37
-0.38
-0.34
-0.23
-0.04
0.17
0.31
0.31
0.15
-0.09
-0.28
-0.32
-0.19
0.05
0.30
0.47
0.56
0.61
0.66
0.71
0.68
0.49
0.15
-0.21
-0.42
-0.35
0.00
0.49
0.88
1.04
0.92
0.64
0.36
0.19
0.14
0.17
0.20
0.18
0.10
0.02
-0.05
-0.10
-0.15
-0.22
-0.33
-0.45
-0.56
-0.59
-0.50
-0.28
0.03
0.34
0.55
0.58
0.41
0.11
-0.21
-0.41
-0.42
-0.22
0.08
0.32
0.39
0.20
-0.18
-0.63
-0.97
-1.11
-1.05
-0.83
-0.57
-0.30
-0.04
0.24
0.54
0.81
0.97
0.96
0.79
0.49
0.17
-0.09
-0.24
-0.28
-0.23
-0.09
0.13
0.40
0.66
0.79
0.72
0.43
0.00
-0.44
-0.77
-0.92
-0.90
-0.75
-0.55
-0.30
-0.04
0.24
0.49
0.65
0.69
0.60
0.45
0.28
0.14
0.05
0.02
0.02
0.04
0.05
-0.00
-0.15
-0.36
-0.56
-0.65
-0.57
-0.31
0.01
0.29
0.41
0.37
0.22
0.06
-0.04
-0.04
0.02
0.06
0.03
-0.12
-0.37
-0.68
-0.99
-1.25
-1.43
-1.50
-1.43
-1.18
-0.74
-0.19
0.35
0.73
0.84
0.69
0.42
0.19
0.13
0.24
0.44
0.64
0.77
0.83
0.87
0.90
0.91
0.85
0.70
0.47
0.21
0.02
-0.04
0.00
0.09
0.15
0.12
0.04
-0.02
0.01
0.15
0.31
0.41
0.33
0.09
-0.24
-0.52
-0.64
-0.59
-0.45
-0.33
-0.31
-0.38
-0.45
-0.47
-0.37
-0.19
0.01
0.14
0.13
-0.02
-0.26
-0.51
-0.64
-0.57
-0.24
0.29
0.88
1.37
1.60
1.55
1.29
0.95
0.65
0.44
0.30
0.16
-0.03
-0.24
-0.43
-0.55
-0.60
-0.59
-0.58
-0.60
-0.67
-0.78
-0.89
-0.97
-0.99
-0.90
-0.70
-0.43
-0.15
0.02
0.04
-0.09
-0.28
-0.40
-0.36
-0.15
0.14
0.39
0.49
0.41
0.20
-0.04
-0.18
-0.17
0.01
0.31
0.64
0.91
1.06
1.08
0.98
0.82
0.67
0.57
0.51
0.45
0.34
0.13
-0.16
-0.51
-0.82
-1.05
-1.11
-0.98
-0.69
-0.33
-0.01
0.16
0.15
0.02
-0.13
-0.19
-0.11
0.05
0.20
0.27
0.22
0.08
-0.11
-0.29
-0.42
-0.50
-0.51
-0.43
-0.29
-0.13
-0.02
-0.04
-0.16
-0.34
-0.47
-0.47
-0.30
-0.00
0.31
0.53
0.61
0.53
0.36
0.15
-0.02
-0.10
-0.06
0.11
0.39
0.71
0.99
1.16
1.16
1.01
0.74
0.40
0.06
-0.26
-0.51
-0.64
-0.59
-0.39
-0.09
0.17
0.28
0.17
-0.10
-0.42
-0.64
-0.65
-0.44
-0.09
0.27
0.48
0.44
0.15
-0.30
-0.73
-1.01
-1.07
-0.94
-0.75
-0.63
-0.64
-0.72
-0.72
-0.54
-0.16
0.30
0.71
0.92
0.94
0.85
0.79
0.84
0.98
1.11
1.14
1.00
0.75
0.48
0.30
0.25
0.28
0.32
0.28
0.12
-0.12
-0.40
-0.63
-0.77
-0.83
-0.82
-0.79
-0.79
-0.81
-0.85
-0.85
-0.82
-0.73
-0.59
-0.39
-0.16
0.10
0.36
0.59
0.75
0.87
0.93
0.96
0.92
0.77
0.49
0.11
-0.28
-0.56
-0.66
-0.59
-0.42
-0.23
-0.05
0.16
0.43
0.76
1.04
1.16
1.04
0.75
0.42
0.23
0.24
0.41
0.58
0.62
0.47
0.18
-0.13
-0.36
-0.50
-0.54
-0.55
-0.55
-0.57
-0.58
-0.56
-0.53
-0.50
-0.50
-0.54
-0.62
-0.67
-0.66
-0.55
-0.34
-0.10
0.09
0.14
0.00
-0.28
-0.64
-0.96
-1.17
-1.23
-1.15
-0.96
-0.71
-0.44
-0.16
0.09
0.29
0.42
0.47
0.45
0.41
0.40
0.49
0.67
0.91
1.09
1.14
1.00
0.72
0.36
0.07
-0.09
-0.10
-0.01
0.09
0.14
0.13
0.06
-0.04
-0.19
-0.36
-0.51
-0.57
-0.45
-0.12
0.35
0.83
1.19
1.29
1.13
0.78
0.38
0.08
-0.04
0.03
0.24
0.49
0.68
0.74
0.63
0.39
0.09
-0.16
-0.33
-0.41
-0.45
-0.49
-0.55
-0.64
-0.71
-0.71
-0.65
-0.54
-0.43
-0.31
-0.20
-0.06
0.09
0.19
0.20
0.08
-0.11
-0.28
-0.34
-0.26
-0.13
-0.05
-0.11
-0.29
-0.48
-0.58
-0.55
-0.42
-0.28
-0.18
-0.13
-0.07
0.08
0.29
0.55
0.75
0.85
0.83
0.75
0.68
0.67
0.70
0.74
0.73
0.65
0.50
0.33
0.16
0.01
-0.13
-0.27
-0.40
-0.47
-0.45
-0.32
-0.16
-0.08
-0.16
-0.42
-0.76
-1.02
-1.06
-0.88
-0.57
-0.30
-0.20
-0.28
-0.45
-0.57
-0.54
-0.35
-0.10
0.14
0.30
0.42
0.58
0.82
1.12
1.36
1.46
1.33
1.03
0.67
0.36
0.19
0.12
0.08
-0.01
-0.19
-0.39
-0.53
-0.52
-0.39
-0.23
-0.19
-0.35
-0.71
-1.16
-1.50
-1.57
-1.33
-0.88
-0.42
-0.14
-0.11
-0.29
-0.51
-0.60
-0.49
-0.25
-0.01
0.10
0.06
-0.06
-0.11
-0.03
0.21
0.49
0.68
0.68
0.52
0.28
0.12
0.10
0.24
0.46
0.68
0.83
0.91
0.93
0.94
0.94
0.94
0.95
0.97
0.98
0.97
0.93
0.85
0.74
0.63
0.55
0.49
0.42
0.27
0.04
-0.30
-0.70
-1.11
-1.46
-1.74
-1.90
-1.90
-1.71
-1.32
-0.77
-0.19
0.23
0.34
0.09
-0.44
-1.06
-1.53
-1.65
-1.39
-0.82
-0.11
0.52
0.93
1.08
0.99
0.76
0.51
0.30
0.17
0.09
0.07
0.13
0.27
0.52
0.80
0.98
0.93
0.62
0.15
-0.29
-0.49
-0.38
0.01
0.49
0.86
1.00
0.91
0.67
0.40
0.19
0.09
0.07
0.11
0.16
0.22
0.26
0.26
0.20
0.07
-0.10
-0.26
-0.35
-0.33
-0.22
-0.08
-0.01
-0.08
-0.28
-0.57
-0.88
-1.16
-1.35
-1.43
-1.36
-1.10
-0.69
-0.18
0.28
0.57
0.61
0.41
0.07
-0.28
-0.53
-0.63
-0.55
-0.35
-0.08
0.22
0.50
0.75
0.93
1.05
1.06
0.95
0.72
0.39
0.05
-0.20
-0.27
-0.16
0.05
0.23
0.26
0.08
-0.23
-0.53
-0.66
-0.54
-0.18
0.27
0.65
0.80
0.67
0.33
-0.07
-0.38
-0.51
-0.47
-0.30
-0.10
0.04
0.09
0.05
-0.05
-0.19
-0.32
-0.41
-0.43
-0.35
-0.18
0.03
0.23
0.38
0.47
0.50
0.50
0.44
0.32
0.16
-0.03
-0.18
-0.24
-0.20
-0.12
-0.05
-0.03
-0.06
-0.07
0.02
0.22
0.51
0.78
0.92
0.84
0.54
0.06
-0.47
-0.91
-1.18
-1.21
-1.06
-0.80
-0.51
-0.25
-0.04
0.13
0.26
0.32
0.30
0.23
0.15
0.14
0.21
0.34
0.46
0.50
0.44
0.28
0.11
-0.02
-0.08
-0.05
0.05
0.18
0.30
0.38
0.37
0.25
0.04
-0.19
-0.34
-0.36
-0.28
-0.14
-0.04
-0.02
-0.08
-0.18
-0.27
-0.32
-0.36
-0.39
-0.43
-0.45
-0.43
-0.35
-0.22
-0.07
0.07
0.13
0.13
0.08
0.04
0.08
0.20
0.36
0.47
0.43
0.24
-0.05
-0.31
-0.43
-0.35
-0.09
0.26
0.56
0.76
0.81
0.77
0.67
0.60
0.54
0.45
0.28
-0.02
-0.42
-0.80
-1.06
-1.09
-0.90
-0.59
-0.32
-0.21
-0.30
-0.53
-0.76
-0.87
-0.79
-0.54
-0.20
0.12
0.35
0.46
0.50
0.51
0.51
0.46
0.37
0.26
0.20
0.28
0.48
0.70
0.75
0.52
0.01
-0.60
-1.06
-1.17
-0.91
-0.42
0.10
0.44
0.54
0.45
0.27
0.09
-0.02
-0.07
-0.09
-0.10
-0.11
-0.12
-0.13
-0.13
-0.12
-0.10
-0.12
-0.21
-0.38
-0.61
-0.84
-0.98
-0.99
-0.82
-0.51
-0.13
0.23
0.51
0.70
0.83
0.95
1.07
1.16
1.16
1.02
0.75
0.46
0.26
0.25
0.41
0.60
0.66
0.49
0.09
-0.40
-0.79
-0.96
-0.89
-0.65
-0.38
-0.16
-0.00
0.12
0.25
0.39
0.49
0.52
0.46
0.32
0.16
0.05
-0.01
-0.01
-0.03
-0.09
-0.22
-0.38
-0.53
-0.62
-0.59
-0.45
-0.22
0.05
0.29
0.41
0.38
0.19
-0.12
-0.44
-0.68
-0.79
-0.75
-0.62
-0.45
-0.30
-0.21
-0.18
-0.20
-0.22
-0.20
-0.09
0.10
0.30
0.42
0.37
0.12
-0.20
-0.46
-0.51
-0.31
0.03
0.39
0.63
0.71
0.66
0.54
0.37
0.17
-0.05
-0.22
-0.26
-0.14
0.09
0.33
0.46
0.40
0.22
0.02
-0.07
0.01
0.24
0.52
0.75
0.84
0.74
0.48
0.13
-0.20
-0.41
-0.46
-0.37
-0.22
-0.06
0.05
0.15
0.24
0.30
0.27
0.12
-0.09
-0.25
-0.25
-0.07
0.18
0.31
0.19
-0.16
-0.58
-0.85
-0.84
-0.58
-0.20
0.13
0.34
0.44
0.48
0.49
0.43
0.27
0.01
-0.28
-0.50
-0.57
-0.50
-0.33
-0.13
0.07
0.25
0.41
0.53
0.55
0.44
0.20
-0.11
-0.39
-0.54
-0.51
-0.32
-0.09
0.07
0.08
-0.08
-0.35
-0.60
-0.76
-0.76
-0.62
-0.40
-0.18
-0.01
0.09
0.17
0.26
0.40
0.59
0.80
0.94
0.93
0.76
0.45
0.11
-0.13
-0.21
-0.13
0.01
0.12
0.14
0.06
-0.05
-0.13
-0.14
-0.08
0.00
0.08
0.16
0.25
0.38
0.56
0.73
0.84
0.81
0.62
0.32
0.00
-0.24
-0.34
-0.30
-0.20
-0.13
-0.14
-0.25
-0.40
-0.56
-0.65
-0.65
-0.57
-0.46
-0.37
-0.37
-0.47
-0.62
-0.74
-0.75
-0.60
-0.34
-0.03
0.22
0.34
0.36
0.35
0.36
0.42
0.52
0.58
0.59
0.55
0.49
0.43
0.37
0.29
0.15
-0.02
-0.18
-0.27
-0.26
-0.17
-0.06
-0.02
-0.08
-0.24
-0.48
-0.70
-0.85
-0.86
-0.75
-0.56
-0.37
-0.24
-0.18
-0.16
-0.14
-0.11
-0.10
-0.16
-0.28
-0.43
-0.49
-0.40
-0.14
0.18
0.43
0.51
0.41
0.21
0.05
0.03
0.16
0.36
0.54
0.60
0.56
0.49
0.48
0.59
0.80
0.98
1.01
0.79
0.37
-0.12
-0.50
-0.62
-0.47
-0.13
0.27
0.61
0.83
0.90
0.85
0.68
0.40
0.04
-0.35
-0.67
-0.85
-0.85
-0.71
-0.48
-0.22
-0.00
0.18
0.33
0.48
0.62
0.75
0.83
0.82
0.69
0.43
0.11
-0.17
-0.36
-0.40
-0.35
-0.28
-0.30
-0.42
-0.62
-0.80
-0.93
-0.99
-1.00
-0.99
-0.96
-0.89
-0.73
-0.51
-0.28
-0.10
-0.02
-0.02
-0.02
0.05
0.21
0.42
0.61
0.71
0.69
0.59
0.47
0.43
0.49
0.60
0.66
0.56
0.22
-0.29
-0.82
-1.17
-1.21
-0.90
-0.37
0.18
0.53
0.59
0.38
0.01
-0.38
-0.71
-0.92
-1.00
-0.93
-0.71
-0.36
0.02
0.32
0.44
0.36
0.14
-0.10
-0.23
-0.22
-0.10
0.03
0.08
0.03
-0.08
-0.17
-0.16
-0.04
0.14
0.29
0.32
0.24
0.12
0.06
0.15
0.40
0.72
0.98
1.05
0.91
0.58
0.20
-0.10
-0.23
-0.17
0.01
0.19
0.31
0.33
0.29
0.25
0.29
0.40
0.54
0.66
0.70
0.63
0.48
0.29
0.10
-0.08
-0.23
-0.37
-0.50
-0.63
-0.77
-0.89
-0.96
-0.95
-0.86
-0.72
-0.54
-0.36
-0.17
0.05
0.32
0.64
0.98
1.28
1.47
1.48
1.29
0.93
0.49
0.06
-0.29
-0.54
-0.69
-0.78
-0.84
-0.87
-0.84
-0.73
-0.55
-0.31
-0.09
0.07
0.12
0.06
-0.11
-0.34
-0.57
-0.76
-0.87
-0.90
-0.87
-0.82
-0.73
-0.57
-0.32
0.01
0.37
0.68
0.90
1.01
1.00
0.91
0.76
0.57
0.34
0.13
-0.03
-0.09
-0.04
0.09
0.26
0.39
0.46
0.41
0.24
-0.06
-0.43
-0.78
-0.98
-0.93
-0.61
-0.11
0.42
0.82
0.96
0.83
0.51
0.10
-0.24
-0.45
-0.46
-0.27
0.06
0.45
0.75
0.85
0.69
0.30
-0.21
-0.67
-0.95
-0.97
-0.78
-0.50
-0.28
-0.19
-0.21
-0.24
-0.18
0.04
0.35
0.65
0.82
0.81
0.67
0.51
0.42
0.43
0.49
0.49
0.38
0.15
-0.13
-0.38
-0.55
-0.62
-0.60
-0.55
-0.49
-0.44
-0.36
-0.25
-0.09
0.10
0.27
0.38
0.41
0.34
0.15
-0.15
-0.53
-0.93
-1.22
-1.28
-1.07
-0.61
-0.04
0.47
0.77
0.85
0.76
0.59
0.42
0.24
0.04
-0.21
-0.48
-0.68
-0.72
-0.58
-0.27
0.12
0.48
0.72
0.82
0.80
0.71
0.57
0.38
0.14
-0.13
-0.37
-0.47
-0.38
-0.13
0.20
0.44
0.48
0.29
-0.06
-0.41
-0.60
-0.55
-0.25
0.18
0.62
0.92
1.03
0.92
0.65
0.31
-0.02
-0.29
-0.49
-0.61
-0.65
-0.61
-0.49
-0.33
-0.22
-0.20
-0.28
-0.41
-0.47
-0.37
-0.11
0.24
0.57
0.76
0.80
0.72
0.60
0.51
0.47
0.45
0.43
0.38
0.29
0.18
0.06
-0.05
-0.11
-0.15
-0.18
-0.24
-0.35
-0.48
-0.57
-0.56
-0.42
-0.17
0.10
0.30
0.35
0.22
-0.06
-0.45
-0.85
-1.17
-1.33
-1.28
-1.06
-0.72
-0.38
-0.15
-0.06
-0.08
-0.13
-0.09
0.08
0.37
0.68
0.91
1.00
0.95
0.85
0.76
0.73
0.74
0.71
0.57
0.30
-0.02
-0.31
-0.50
-0.55
-0.53
-0.48
-0.46
-0.45
-0.40
-0.28
-0.06
0.24
0.56
0.80
0.89
0.80
0.54
0.19
-0.19
-0.52
-0.73
-0.81
-0.78
-0.69
-0.57
-0.44
-0.32
-0.22
-0.14
-0.10
-0.10
-0.12
-0.13
-0.10
-0.01
0.11
0.25
0.35
0.41
0.44
0.48
0.51
0.51
0.44
0.27
0.07
-0.07
-0.05
0.16
0.46
0.70
0.72
0.48
0.06
-0.34
-0.55
-0.49
-0.23
0.05
0.21
0.16
-0.03
-0.27
-0.44
-0.47
-0.35
-0.15
0.05
0.19
0.20
0.07
-0.17
-0.47
-0.76
-0.99
-1.14
-1.18
-1.12
-0.96
-0.71
-0.38
0.00
0.39
0.74
1.02
1.20
1.25
1.17
0.96
0.67
0.40
0.24
0.25
0.38
0.48
0.42
0.11
-0.41
-0.97
-1.33
-1.30
-0.87
-0.17
0.53
0.97
1.04
0.78
0.37
0.02
-0.10
0.04
0.36
0.70
0.91
0.91
0.70
0.36
0.02
-0.23
-0.33
-0.28
-0.16
-0.03
0.05
0.07
0.03
-0.05
-0.18
-0.35
-0.56
-0.77
-0.90
-0.89
-0.74
-0.48
-0.24
-0.14
-0.23
-0.48
-0.78
-0.99
-1.02
-0.84
-0.51
-0.13
0.19
0.39
0.46
0.43
0.36
0.28
0.22
0.18
0.18
0.22
0.33
0.48
0.64
0.77
0.81
0.73
0.53
0.26
-0.02
-0.27
-0.43
-0.49
-0.43
-0.28
-0.09
0.06
0.13
0.08
-0.04
-0.14
-0.16
-0.11
-0.02
0.03
-0.00
-0.10
-0.17
-0.18
-0.10
-0.00
0.02
-0.06
-0.21
-0.31
-0.25
-0.01
0.35
0.70
0.93
0.99
0.88
0.68
0.43
0.19
-0.02
-0.16
-0.21
-0.13
0.04
0.25
0.44
0.53
0.48
0.31
0.04
-0.25
-0.50
-0.61
-0.55
-0.35
-0.09
0.08
0.10
-0.03
-0.23
-0.37
-0.38
-0.25
-0.05
0.12
0.23
0.30
0.38
0.51
0.67
0.82
0.90
0.90
0.83
0.72
0.57
0.39
0.18
-0.06
-0.31
-0.55
-0.76
-0.90
-0.94
-0.85
-0.63
-0.36
-0.14
-0.10
-0.27
-0.57
-0.81
-0.82
-0.51
0.01
0.52
0.80
0.74
0.40
-0.06
-0.46
-0.69
-0.75
-0.71
-0.62
-0.51
-0.37
-0.20
-0.05
0.01
-0.08
-0.29
-0.52
-0.60
-0.44
-0.05
0.44
0.83
0.98
0.87
0.60
0.31
0.13
0.08
0.08
0.06
-0.04
-0.19
-0.33
-0.39
-0.36
-0.29
-0.22
-0.18
-0.16
-0.11
0.01
0.22
0.47
0.68
0.80
0.77
0.60
0.30
-0.05
-0.38
-0.62
-0.72
-0.66
-0.49
-0.29
-0.13
-0.09
-0.13
-0.17
-0.10
0.13
0.48
0.81
0.97
0.86
0.53
0.09
-0.29
-0.52
-0.58
-0.52
-0.39
-0.22
-0.05
0.08
0.12
0.06
-0.10
-0.28
-0.38
-0.34
-0.14
0.12
0.36
0.49
0.50
0.41
0.26
0.10
-0.06
-0.19
-0.30
-0.37
-0.36
-0.29
-0.15
0.02
0.19
0.34
0.46
0.52
0.52
0.47
0.40
0.33
0.31
0.33
0.37
0.37
0.26
0.08
-0.13
-0.27
-0.28
-0.16
0.01
0.14
0.15
0.03
-0.14
-0.29
-0.32
-0.24
-0.08
0.07
0.15
0.12
0.01
-0.15
-0.31
-0.45
-0.57
-0.67
-0.73
-0.76
-0.75
-0.72
-0.65
-0.55
-0.38
-0.14
0.18
0.50
0.75
0.84
0.78
0.60
0.44
0.39
0.49
0.68
0.85
0.91
0.85
0.72
0.57
0.43
0.28
0.08
-0.20
-0.49
-0.70
-0.75
-0.62
-0.40
-0.24
-0.23
-0.37
-0.55
-0.63
-0.54
-0.29
0.02
0.25
0.36
0.35
0.26
0.14
0.00
-0.14
-0.29
-0.39
-0.39
-0.27
-0.06
0.12
0.19
0.13
-0.03
-0.15
-0.16
-0.04
0.13
0.28
0.33
0.28
0.16
-0.01
-0.20
-0.42
-0.64
-0.79
-0.79
-0.60
-0.26
0.16
0.54
0.78
0.86
0.77
0.54
0.23
-0.10
-0.36
-0.47
-0.43
-0.27
-0.06
0.13
0.27
0.39
0.52
0.67
0.79
0.78
0.60
0.26
-0.14
-0.43
-0.48
-0.24
0.18
0.58
0.78
0.70
0.40
0.06
-0.17
-0.23
-0.21
-0.22
-0.36
-0.58
-0.77
-0.82
-0.65
-0.29
0.15
0.55
0.81
0.88
0.77
0.53
0.22
-0.07
-0.27
-0.36
-0.36
-0.31
-0.26
-0.21
-0.17
-0.12
-0.08
-0.05
-0.04
-0.04
-0.02
0.00
0.02
0.01
-0.05
-0.14
-0.21
-0.22
-0.18
-0.12
-0.09
-0.15
-0.32
-0.53
-0.71
-0.75
-0.62
-0.34
-0.01
0.24
0.33
0.27
0.12
-0.03
-0.10
-0.10
-0.06
-0.04
-0.04
-0.07
-0.07
-0.02
0.06
0.15
0.20
0.20
0.16
0.11
0.08
0.05
0.00
-0.08
-0.21
-0.35
-0.47
-0.51
-0.44
-0.24
0.05
0.36
0.60
0.67
0.53
0.21
-0.20
-0.56
-0.77
-0.75
-0.54
-0.20
0.19
0.53
0.79
0.93
0.93
0.80
0.60
0.40
0.31
0.38
0.59
0.85
1.05
1.09
0.93
0.61
0.19
-0.22
-0.54
-0.69
-0.68
-0.54
-0.34
-0.16
-0.04
0.02
0.05
0.09
0.14
0.18
0.17
0.10
0.00
-0.08
-0.13
-0.14
-0.15
-0.20
-0.32
-0.51
-0.71
-0.89
-0.98
-0.95
-0.80
-0.56
-0.28
-0.04
0.10
0.12
0.07
0.01
0.02
0.14
0.34
0.55
0.67
0.64
0.47
0.18
-0.12
-0.36
-0.51
-0.56
-0.50
-0.38
-0.19
0.02
0.25
0.44
0.59
0.68
0.72
0.71
0.67
0.58
0.44
0.24
0.01
-0.19
-0.33
-0.39
-0.40
-0.36
-0.33
-0.32
-0.33
-0.39
-0.48
-0.59
-0.69
-0.73
-0.66
-0.46
-0.18
0.11
0.33
0.42
0.37
0.26
0.16
0.08
0.01
-0.09
-0.22
-0.33
-0.35
-0.22
0.03
0.29
0.43
0.36
0.12
-0.19
-0.43
-0.51
-0.43
-0.27
-0.11
0.03
0.18
0.36
0.57
0.79
0.94
0.97
0.84
0.60
0.32
0.10
0.01
0.10
0.31
0.53
0.66
0.67
0.57
0.46
0.42
0.43
0.42
0.32
0.13
-0.06
-0.14
-0.06
0.11
0.24
0.17
-0.16
-0.64
-1.08
-1.32
-1.28
-1.06
-0.78
-0.59
-0.53
-0.55
-0.58
-0.56
-0.50
-0.47
-0.53
-0.68
-0.85
-0.96
-0.91
-0.72
-0.44
-0.13
0.16
0.43
0.69
0.96
1.18
1.31
1.31
1.21
1.08
0.97
0.89
0.78
0.59
0.30
-0.04
-0.38
-0.65
-0.83
-0.93
-0.96
-0.90
-0.73
-0.44
-0.06
0.33
0.62
0.74
0.67
0.47
0.22
-0.01
-0.13
-0.14
-0.06
0.05
0.10
0.06
-0.06
-0.21
-0.32
-0.32
-0.22
-0.09
0.01
0.02
-0.05
-0.15
-0.16
-0.04
0.24
0.58
0.87
0.98
0.86
0.54
0.14
-0.21
-0.37
-0.32
-0.11
0.14
0.31
0.34
0.25
0.10
-0.03
-0.11
-0.15
-0.19
-0.27
-0.39
-0.54
-0.66
-0.72
-0.70
-0.59
-0.41
-0.18
0.06
0.28
0.42
0.44
0.34
0.17
0.04
0.02
0.15
0.37
0.54
0.55
0.31
-0.11
-0.58
-0.90
-0.92
-0.61
-0.06
0.53
0.95
1.03
0.75
0.25
-0.27
-0.62
-0.69
-0.56
-0.36
-0.25
-0.29
-0.40
-0.45
-0.38
-0.19
0.02
0.14
0.14
0.10
0.09
0.18
0.34
0.48
0.51
0.41
0.21
0.02
-0.10
-0.10
-0.01
0.12
0.25
0.34
0.38
0.39
0.39
0.42
0.48
0.58
0.68
0.74
0.75
0.70
0.61
0.51
0.37
0.18
-0.09
-0.44
-0.82
-1.15
-1.35
-1.39
-1.25
-0.98
-0.63
-0.28
-0.00
0.17
0.21
0.18
0.14
0.14
0.19
0.28
0.32
0.29
0.18
0.03
-0.11
-0.20
-0.26
-0.36
-0.50
-0.66
-0.76
-0.72
-0.50
-0.17
0.16
0.35
0.30
0.05
-0.28
-0.50
-0.51
-0.31
-0.00
0.24
0.31
0.22
0.09
0.06
0.22
0.51
0.81
0.98
0.95
0.79
0.60
0.47
0.39
0.27
0.03
-0.35
-0.78
-1.11
-1.25
-1.18
-1.03
-0.91
-0.89
-0.94
-0.92
-0.71
-0.25
0.38
0.99
1.38
1.41
1.12
0.63
0.15
-0.12
-0.13
0.08
0.35
0.55
0.57
0.43
0.20
-0.05
-0.28
-0.51
-0.74
-0.95
-1.05
-0.95
-0.61
-0.12
0.36
0.65
0.68
0.51
0.28
0.13
0.12
0.18
0.19
0.11
-0.05
-0.17
-0.16
-0.03
0.15
0.26
0.24
0.14
0.05
0.07
0.21
0.41
0.57
0.63
0.58
0.49
0.43
0.43
0.47
0.49
0.45
0.34
0.21
0.08
-0.02
-0.12
-0.25
-0.44
-0.64
-0.78
-0.79
-0.66
-0.42
-0.16
0.07
0.22
0.30
0.33
0.33
0.29
0.21
0.13
0.05
0.02
0.02
0.01
-0.05
-0.17
-0.31
-0.37
-0.31
-0.11
0.14
0.38
0.52
0.56
0.50
0.39
0.22
0.02
-0.20
-0.39
-0.50
-0.47
-0.32
-0.11
0.08
0.19
0.21
0.15
0.05
-0.06
-0.19
-0.34
-0.51
-0.64
-0.69
-0.66
-0.55
-0.41
-0.28
-0.19
-0.13
-0.10
-0.11
-0.16
-0.26
-0.35
-0.38
-0.33
-0.19
-0.01
0.14
0.21
0.19
0.13
0.09
0.09
0.13
0.16
0.17
0.15
0.11
0.08
0.06
0.07
0.12
0.20
0.31
0.41
0.47
0.46
0.39
0.31
0.28
0.31
0.39
0.46
0.48
0.46
0.42
0.42
0.47
0.53
0.53
0.41
0.15
-0.22
-0.63
-0.99
-1.25
-1.37
-1.33
-1.15
-0.84
-0.46
-0.07
0.21
0.30
0.14
-0.20
-0.59
-0.86
-0.88
-0.63
-0.23
0.18
0.50
0.70
0.87
1.09
1.35
1.58
1.65
1.46
1.02
0.43
-0.19
-0.71
-1.06
-1.19
-1.11
-0.82
-0.40
0.05
0.40
0.55
0.48
0.25
-0.01
-0.16
-0.15
0.03
0.29
0.50
0.57
0.49
0.30
0.08
-0.09
-0.20
-0.27
-0.36
-0.48
-0.61
-0.71
-0.73
-0.64
-0.50
-0.39
-0.38
-0.47
-0.63
-0.75
-0.76
-0.63
-0.35
-0.02
0.28
0.46
0.50
0.42
0.31
0.21
0.14
0.10
0.05
-0.05
-0.16
-0.25
-0.25
-0.17
0.00
0.22
0.45
0.66
0.82
0.94
1.00
1.02
0.99
0.93
0.83
0.70
0.53
0.33
0.13
-0.05
-0.17
-0.22
-0.23
-0.24
-0.28
-0.34
-0.38
-0.36
-0.24
-0.06
0.14
0.31
0.42
0.45
0.43
0.37
0.27
0.14
-0.03
-0.25
-0.46
-0.64
-0.74
-0.73
-0.64
-0.52
-0.44
-0.45
-0.54
-0.65
-0.71
-0.68
-0.59
-0.52
-0.52
-0.57
-0.60
-0.50
-0.23
0.15
0.51
0.72
0.73
0.57
0.33
0.12
-0.02
-0.10
-0.12
-0.07
0.07
0.31
0.60
0.86
1.01
1.01
0.89
0.70
0.50
0.32
0.17
0.04
-0.06
-0.12
-0.12
-0.12
-0.17
-0.31
-0.52
-0.75
-0.88
-0.85
-0.67
-0.42
-0.21
-0.10
-0.10
-0.15
-0.18
-0.16
-0.07
0.04
0.14
0.23
0.32
0.45
0.61
0.76
0.82
0.71
0.41
-0.01
-0.43
-0.69
-0.72
-0.51
-0.17
0.16
0.39
0.50
0.54
0.57
0.57
0.48
0.24
-0.14
-0.54
-0.81
-0.81
-0.54
-0.07
0.42
0.82
1.04
1.09
1.01
0.86
0.66
0.46
0.28
0.14
0.04
-0.08
-0.26
-0.52
-0.80
-1.04
-1.16
-1.13
-1.01
-0.83
-0.65
-0.47
-0.30
-0.14
-0.04
-0.05
-0.18
-0.38
-0.57
-0.67
-0.63
-0.48
-0.29
-0.13
-0.05
-0.01
0.01
0.06
0.15
0.27
0.37
0.41
0.39
0.31
0.19
0.05
-0.08
-0.20
-0.26
-0.24
-0.11
0.12
0.39
0.62
0.74
0.72
0.56
0.35
0.16
0.07
0.09
0.21
0.41
0.64
0.84
0.96
0.94
0.75
0.41
-0.02
-0.45
-0.79
-0.98
-1.03
-0.95
-0.77
-0.54
-0.31
-0.12
0.01
0.06
0.03
-0.04
-0.09
-0.09
-0.03
0.09
0.23
0.37
0.49
0.59
0.63
0.61
0.51
0.34
0.13
-0.06
-0.17
-0.17
-0.07
0.06
0.15
0.14
0.04
-0.11
-0.24
-0.31
-0.33
-0.32
-0.31
-0.31
-0.31
-0.28
-0.19
-0.03
0.16
0.34
0.47
0.51
0.43
0.25
0.00
-0.25
-0.48
-0.66
-0.78
-0.86
-0.89
-0.84
-0.68
-0.40
-0.06
0.27
0.46
0.48
0.35
0.16
0.00
-0.07
-0.07
-0.06
-0.08
-0.14
-0.16
-0.08
0.16
0.52
0.88
1.13
1.19
1.07
0.84
0.59
0.39
0.24
0.08
-0.14
-0.45
-0.80
-1.12
-1.30
-1.28
-1.07
-0.73
-0.34
0.02
0.30
0.52
0.64
0.68
0.61
0.46
0.26
0.06
-0.07
-0.13
-0.14
-0.14
-0.14
-0.13
-0.11
-0.06
-0.03
-0.04
-0.10
-0.16
-0.16
-0.07
0.08
0.22
0.26
0.20
0.10
0.07
0.13
0.27
0.39
0.39
0.24
-0.01
-0.25
-0.38
-0.34
-0.16
0.07
0.28
0.41
0.42
0.32
0.12
-0.13
-0.37
-0.49
-0.43
-0.14
0.33
0.85
1.23
1.32
1.08
0.58
0.03
-0.38
-0.49
-0.34
-0.05
0.19
0.24
0.09
-0.20
-0.45
-0.59
-0.58
-0.49
-0.40
-0.37
-0.41
-0.49
-0.57
-0.61
-0.60
-0.54
-0.43
-0.30
-0.18
-0.11
-0.13
-0.22
-0.30
-0.28
-0.10
0.20
0.52
0.72
0.71
0.50
0.15
-0.20
-0.46
-0.59
-0.61
-0.56
-0.50
-0.45
-0.41
-0.36
-0.28
-0.15
0.01
0.20
0.38
0.51
0.54
0.44
0.22
-0.05
-0.29
-0.40
-0.32
-0.08
0.25
0.56
0.75
0.77
0.64
0.40
0.12
-0.16
-0.41
-0.61
-0.75
-0.80
-0.73
-0.56
-0.31
-0.03
0.24
0.45
0.60
0.70
0.80
0.94
1.11
1.25
1.26
1.09
0.74
0.32
-0.01
-0.13
-0.00
0.28
0.56
0.69
0.59
0.28
-0.13
-0.53
-0.83
-0.98
-0.95
-0.77
-0.47
-0.13
0.13
0.22
0.13
-0.10
-0.35
-0.52
-0.56
-0.51
-0.44
-0.40
-0.38
-0.32
-0.16
0.10
0.36
0.52
0.46
0.21
-0.10
-0.31
-0.29
-0.03
0.34
0.64
0.74
0.60
0.31
-0.01
-0.26
-0.40
-0.45
-0.44
-0.38
-0.28
-0.14
0.02
0.14
0.17
0.10
0.00
-0.05
0.03
0.26
0.59
0.91
1.12
1.16
1.03
0.77
0.47
0.19
-0.04
-0.23
-0.37
-0.46
-0.44
-0.29
-0.02
0.26
0.44
0.42
0.18
-0.19
-0.52
-0.68
-0.63
-0.43
-0.21
-0.06
-0.05
-0.15
-0.30
-0.44
-0.54
-0.58
-0.54
-0.43
-0.25
-0.03
0.15
0.23
0.14
-0.09
-0.38
-0.61
-0.70
-0.64
-0.52
-0.41
-0.39
-0.46
-0.55
-0.60
-0.57
-0.48
-0.36
-0.22
-0.05
0.18
0.46
0.75
0.93
0.94
0.78
0.51
0.21
-0.02
-0.16
-0.18
-0.09
0.14
0.48
0.87
1.24
1.49
1.58
1.55
1.45
1.36
1.25
1.05
0.66
0.08
-0.59
-1.14
-1.40
-1.31
-0.95
-0.53
-0.25
-0.20
-0.37
-0.63
-0.84
-0.94
-0.92
-0.86
-0.79
-0.73
-0.65
-0.52
-0.35
-0.18
-0.07
-0.07
-0.15
-0.23
-0.23
-0.09
0.17
0.41
0.48
0.30
-0.11
-0.59
-0.91
-0.89
-0.50
0.12
0.78
1.27
1.48
1.41
1.14
0.74
0.30
-0.11
-0.40
-0.51
-0.39
-0.11
0.19
0.38
0.36
0.13
-0.22
-0.57
-0.79
-0.79
-0.54
-0.09
0.45
0.91
1.15
1.06
0.67
0.12
-0.38
-0.66
-0.67
-0.49
-0.26
-0.11
-0.06
-0.07
-0.06
0.04
0.22
0.42
0.57
0.62
0.58
0.52
0.47
0.44
0.41
0.35
0.24
0.10
-0.06
-0.20
-0.29
-0.32
-0.28
-0.17
0.02
0.24
0.44
0.54
0.51
0.35
0.12
-0.11
-0.29
-0.42
-0.49
-0.54
-0.55
-0.51
-0.39
-0.18
0.10
0.39
0.57
0.57
0.32
-0.15
-0.73
-1.28
-1.62
-1.65
-1.36
-0.85
-0.30
0.15
0.38
0.40
0.26
0.06
-0.10
-0.16
-0.09
0.09
0.36
0.66
0.91
1.04
1.00
0.81
0.51
0.22
0.04
0.00
0.10
0.23
0.33
0.32
0.18
-0.05
-0.31
-0.51
-0.57
-0.49
-0.32
-0.16
-0.13
-0.28
-0.57
-0.90
-1.16
-1.28
-1.25
-1.09
-0.83
-0.51
-0.13
0.29
0.69
1.02
1.19
1.18
0.99
0.70
0.39
0.12
-0.06
-0.14
-0.13
-0.03
0.16
0.45
0.78
1.10
1.30
1.29
1.04
0.60
0.11
-0.29
-0.47
-0.44
-0.27
-0.07
0.06
0.09
0.07
0.05
0.05
0.09
0.14
0.15
0.12
0.05
-0.06
-0.18
-0.29
-0.39
-0.48
-0.54
-0.60
-0.63
-0.62
-0.54
-0.40
-0.22
-0.05
0.06
0.09
0.07
0.05
0.06
0.11
0.17
0.20
0.16
0.03
-0.16
-0.37
-0.54
-0.66
-0.70
-0.67
-0.57
-0.42
-0.24
-0.06
0.08
0.13
0.10
-0.00
-0.11
-0.15
-0.08
0.10
0.34
0.57
0.73
0.79
0.76
0.67
0.54
0.44
0.39
0.37
0.37
0.30
0.13
-0.11
-0.35
-0.45
-0.35
-0.08
0.26
0.50
0.53
0.32
-0.04
-0.46
-0.82
-1.06
-1.13
-1.03
-0.79
-0.46
-0.11
0.14
0.20
0.07
-0.20
-0.47
-0.62
-0.57
-0.36
-0.07
0.16
0.28
0.27
0.22
0.22
0.31
0.46
0.61
0.66
0.60
0.49
0.43
0.48
0.62
0.76
0.82
0.73
0.55
0.35
0.22
0.18
0.22
0.24
0.18
0.02
-0.24
-0.53
-0.79
-0.99
-1.10
-1.09
-0.97
-0.75
-0.43
-0.07
0.27
0.52
0.62
0.55
0.34
0.08
-0.13
-0.22
-0.18
-0.03
0.16
0.31
0.39
0.37
0.26
0.10
-0.08
-0.24
-0.32
-0.31
-0.20
-0.03
0.15
0.32
0.46
0.58
0.68
0.76
0.80
0.80
0.74
0.66
0.60
0.58
0.56
0.50
0.36
0.14
-0.12
-0.34
-0.49
-0.58
-0.66
-0.77
-0.89
-0.96
-0.92
-0.73
-0.43
-0.12
0.09
0.10
-0.11
-0.50
-0.97
-1.44
-1.82
-2.06
-2.08
-1.87
-1.45
-0.89
-0.31
0.16
0.46
0.57
0.56
0.51
0.48
0.48
0.46
0.41
0.31
0.19
0.09
0.02
-0.01
-0.02
0.00
0.08
0.24
0.46
0.72
0.94
1.06
1.05
0.95
0.83
0.73
0.66
0.60
0.52
0.40
0.25
0.11
0.02
0.01
0.10
0.26
0.43
0.54
0.55
0.47
0.37
0.31
0.34
0.43
0.50
0.46
0.26
-0.07
-0.40
-0.65
-0.76
-0.73
-0.60
-0.43
-0.24
-0.03
0.18
0.35
0.44
0.41
0.30
0.17
0.09
0.05
0.01
-0.11
-0.31
-0.58
-0.83
-0.95
-0.90
-0.69
-0.39
-0.09
0.13
0.21
0.14
-0.08
-0.37
-0.64
-0.80
-0.78
-0.61
-0.38
-0.18
-0.10
-0.16
-0.33
-0.54
-0.74
-0.85
-0.81
-0.60
-0.23
0.21
0.58
0.78
0.77
0.60
0.38
0.21
0.13
0.16
0.26
0.39
0.53
0.68
0.81
0.88
0.85
0.68
0.40
0.11
-0.08
-0.05
0.18
0.53
0.81
0.88
0.67
0.25
-0.23
-0.61
-0.78
-0.77
-0.65
-0.53
-0.47
-0.50
-0.60
-0.74
-0.89
-0.98
-0.96
-0.77
-0.43
0.01
0.44
0.74
0.83
0.69
0.38
0.00
-0.34
-0.56
-0.61
-0.45
-0.12
0.30
0.71
0.98
1.04
0.88
0.55
0.17
-0.14
-0.31
-0.30
-0.16
0.04
0.23
0.34
0.38
0.37
0.34
0.30
0.26
0.21
0.14
0.08
0.05
0.07
0.10
0.08
-0.03
-0.24
-0.47
-0.62
-0.60
-0.42
-0.14
0.09
0.21
0.21
0.14
0.10
0.12
0.20
0.30
0.34
0.29
0.13
-0.10
-0.35
-0.58
-0.77
-0.92
-1.03
-1.10
-1.10
-1.00
-0.79
-0.53
-0.30
-0.17
-0.18
-0.25
-0.27
-0.16
0.06
0.33
0.51
0.53
0.43
0.29
0.23
0.28
0.43
0.57
0.63
0.59
0.48
0.35
0.24
0.16
0.07
-0.02
-0.09
-0.11
-0.02
0.17
0.41
0.63
0.75
0.73
0.57
0.31
0.01
-0.27
-0.44
-0.42
-0.21
0.13
0.45
0.58
0.43
0.09
-0.28
-0.48
-0.43
-0.21
0.00
0.01
-0.21
-0.55
-0.81
-0.81
-0.53
-0.08
0.36
0.65
0.76
0.76
0.72
0.71
0.72
0.71
0.64
0.50
0.33
0.18
0.09
0.06
0.06
0.07
0.05
0.00
-0.08
-0.20
-0.33
-0.48
-0.59
-0.64
-0.60
-0.47
-0.31
-0.15
-0.02
0.07
0.13
0.13
0.08
-0.05
-0.25
-0.45
-0.63
-0.70
-0.65
-0.47
-0.21
0.03
0.18
0.20
0.11
-0.03
-0.12
-0.14
-0.11
-0.10
-0.21
-0.45
-0.77
-1.05
-1.16
-1.04
-0.68
-0.16
0.40
0.89
1.22
1.32
1.21
0.99
0.75
0.58
0.49
0.43
0.33
0.19
0.05
-0.00
0.08
0.24
0.37
0.34
0.13
-0.18
-0.43
-0.47
-0.30
-0.01
0.22
0.28
0.14
-0.08
-0.27
-0.35
-0.31
-0.24
-0.19
-0.21
-0.26
-0.31
-0.32
-0.26
-0.12
0.08
0.32
0.49
0.50
0.31
-0.04
-0.43
-0.69
-0.73
-0.57
-0.31
-0.08
0.06
0.13
0.19
0.28
0.38
0.43
0.42
0.37
0.36
0.44
0.59
0.72
0.74
0.60
0.36
0.12
-0.02
-0.03
0.03
0.07
-0.00
-0.18
-0.39
-0.57
-0.65
-0.65
-0.63
-0.66
-0.73
-0.82
-0.85
-0.80
-0.68
-0.54
-0.42
-0.32
-0.22
-0.07
0.13
0.35
0.52
0.58
0.52
0.37
0.19
-0.00
-0.17
-0.32
-0.42
-0.43
-0.30
-0.06
0.21
0.39
0.39
0.20
-0.10
-0.36
-0.49
-0.45
-0.28
-0.04
0.21
0.42
0.58
0.64
0.55
0.33
0.05
-0.19
-0.30
-0.23
-0.05
0.14
0.25
0.24
0.15
0.05
0.03
0.12
0.31
0.54
0.73
0.81
0.74
0.58
0.40
0.27
0.25
0.32
0.39
0.39
0.31
0.15
-0.02
-0.16
-0.26
-0.33
-0.36
-0.34
-0.25
-0.12
0.02
0.12
0.19
0.27
0.42
0.62
0.79
0.79
0.55
0.12
-0.37
-0.72
-0.82
-0.69
-0.45
-0.26
-0.17
-0.15
-0.13
-0.05
0.11
0.31
0.49
0.63
0.70
0.65
0.44
0.04
-0.50
-1.05
-1.44
-1.54
-1.31
-0.88
-0.44
-0.18
-0.17
-0.33
-0.51
-0.56
-0.44
-0.17
0.11
0.30
0.30
0.13
-0.16
-0.48
-0.74
-0.86
-0.82
-0.64
-0.33
0.05
0.43
0.73
0.91
0.93
0.81
0.60
0.33
0.07
-0.15
-0.28
-0.28
-0.18
-0.00
0.16
0.23
0.19
0.10
0.04
0.08
0.26
0.53
0.80
0.99
1.06
1.02
0.91
0.76
0.61
0.48
0.36
0.25
0.12
-0.03
-0.16
-0.24
-0.24
-0.17
-0.11
-0.11
-0.23
-0.43
-0.62
-0.69
-0.59
-0.30
0.06
0.34
0.40
0.18
-0.27
-0.78
-1.16
-1.24
-0.99
-0.49
0.09
0.59
0.88
0.94
0.81
0.59
0.33
0.07
-0.17
-0.41
-0.60
-0.71
-0.67
-0.46
-0.13
0.25
0.58
0.79
0.90
0.92
0.86
0.69
0.37
-0.05
-0.49
-0.77
-0.82
-0.64
-0.37
-0.15
-0.06
-0.05
-0.02
0.12
0.33
0.52
0.55
0.38
0.04
-0.37
-0.72
-0.98
-1.13
-1.18
-1.11
-0.92
-0.64
-0.34
-0.13
-0.07
-0.16
-0.31
-0.37
-0.26
0.02
0.36
0.61
0.67
0.53
0.26
-0.01
-0.20
-0.26
-0.24
-0.18
-0.15
-0.18
-0.23
-0.26
-0.21
-0.06
0.19
0.46
0.67
0.78
0.79
0.76
0.74
0.76
0.81
0.77
0.59
0.23
-0.25
-0.69
-0.95
-0.91
-0.58
-0.08
0.40
0.68
0.69
0.52
0.31
0.18
0.16
0.20
0.18
0.06
-0.14
-0.35
-0.48
-0.53
-0.50
-0.44
-0.33
-0.16
0.10
0.42
0.72
0.89
0.85
0.62
0.24
-0.18
-0.59
-0.92
-1.12
-1.15
-0.96
-0.58
-0.07
0.42
0.76
0.85
0.70
0.43
0.16
0.03
0.05
0.17
0.25
0.21
0.02
-0.23
-0.43
-0.44
-0.27
0.01
0.25
0.30
0.13
-0.20
-0.55
-0.77
-0.79
-0.64
-0.42
-0.24
-0.15
-0.13
-0.14
-0.13
-0.09
-0.05
-0.05
-0.12
-0.21
-0.29
-0.34
-0.35
-0.35
-0.37
-0.41
-0.46
-0.45
-0.34
-0.08
0.31
0.76
1.16
1.39
1.38
1.13
0.72
0.27
-0.10
-0.30
-0.34
-0.24
-0.05
0.17
0.36
0.45
0.39
0.13
-0.27
-0.67
-0.91
-0.87
-0.50
0.08
0.69
1.11
1.21
0.96
0.46
-0.11
-0.55
-0.74
-0.65
-0.32
0.12
0.53
0.84
0.99
0.95
0.73
0.36
-0.08
-0.46
-0.64
-0.53
-0.14
0.41
0.91
1.21
1.24
1.02
0.67
0.31
0.01
-0.21
-0.37
-0.47
-0.55
-0.60
-0.64
-0.66
-0.69
-0.74
-0.83
-0.93
-0.98
-0.90
-0.63
-0.19
0.29
0.67
0.81
0.71
0.46
0.24
0.16
0.25
0.38
0.43
0.28
-0.06
-0.50
-0.89
-1.11
-1.11
-0.90
-0.55
-0.17
0.16
0.39
0.53
0.61
0.68
0.76
0.86
0.93
0.97
0.94
0.83
0.66
0.43
0.14
-0.18
-0.48
-0.70
-0.80
-0.79
-0.71
-0.62
-0.55
-0.50
-0.48
-0.47
-0.49
-0.56
-0.68
-0.79
-0.82
-0.71
-0.43
-0.08
0.23
0.40
0.39
0.25
0.10
0.01
0.03
0.12
0.20
0.23
0.20
0.15
0.13
0.16
0.21
0.21
0.16
0.07
0.02
0.06
0.23
0.45
0.61
0.58
0.34
-0.05
-0.44
-0.67
-0.68
-0.51
-0.28
-0.10
-0.04
-0.08
-0.11
-0.09
-0.02
0.04
-0.02
-0.19
-0.40
-0.52
-0.44
-0.15
0.24
0.59
0.81
0.86
0.76
0.57
0.34
0.08
-0.16
-0.35
-0.44
-0.40
-0.22
0.07
0.42
0.74
0.97
1.05
0.97
0.73
0.40
0.06
-0.22
-0.41
-0.53
-0.62
-0.65
-0.63
-0.51
-0.31
-0.09
0.05
0.05
-0.09
-0.28
-0.41
-0.39
-0.22
0.02
0.21
0.28
0.23
0.11
-0.02
-0.13
-0.20
-0.23
-0.19
-0.06
0.15
0.34
0.41
0.26
-0.09
-0.50
-0.78
-0.79
-0.52
-0.06
0.37
0.61
0.60
0.41
0.18
0.07
0.15
0.40
0.72
0.98
1.10
1.05
0.91
0.76
0.63
0.51
0.35
0.08
-0.28
-0.64
-0.85
-0.85
-0.64
-0.33
-0.05
0.08
0.04
-0.10
-0.26
-0.35
-0.36
-0.33
-0.29
-0.25
-0.22
-0.17
-0.13
-0.14
-0.27
-0.51
-0.82
-1.03
-1.00
-0.66
-0.06
0.64
1.23
1.57
1.59
1.38
1.04
0.71
0.45
0.29
0.18
0.10
0.01
-0.09
-0.18
-0.22
-0.18
-0.08
0.03
0.08
0.05
-0.07
-0.21
-0.32
-0.40
-0.48
-0.59
-0.75
-0.90
-0.97
-0.90
-0.69
-0.41
-0.15
0.01
0.06
-0.01
-0.14
-0.30
-0.48
-0.65
-0.77
-0.81
-0.72
-0.45
-0.05
0.41
0.83
1.10
1.16
0.99
0.67
0.32
0.06
-0.02
0.09
0.34
0.65
0.91
1.06
1.03
0.85
0.55
0.19
-0.15
-0.43
-0.58
-0.59
-0.50
-0.35
-0.21
-0.11
-0.08
-0.09
-0.14
-0.22
-0.32
-0.45
-0.56
-0.59
-0.51
-0.29
-0.01
0.24
0.39
0.40
0.29
0.14
0.02
-0.04
-0.04
0.00
0.04
0.03
-0.03
-0.12
-0.21
-0.27
-0.25
-0.14
0.05
0.27
0.43
0.46
0.31
0.02
-0.32
-0.58
-0.65
-0.52
-0.28
-0.08
-0.07
-0.29
-0.67
-1.06
-1.29
-1.27
-0.98
-0.53
-0.03
0.40
0.68
0.79
0.76
0.64
0.50
0.41
0.38
0.42
0.47
0.48
0.41
0.28
0.11
-0.05
-0.15
-0.16
-0.10
0.00
0.11
0.22
0.33
0.45
0.57
0.67
0.71
0.69
0.62
0.56
0.53
0.54
0.54
0.47
0.30
0.03
-0.27
-0.55
-0.73
-0.75
-0.58
-0.24
0.18
0.57
0.79
0.77
0.50
0.08
-0.38
-0.76
-1.01
-1.11
-1.07
-0.92
-0.68
-0.42
-0.19
-0.07
-0.06
-0.10
-0.11
0.00
0.22
0.46
0.62
0.61
0.45
0.20
-0.03
-0.20
-0.31
-0.38
-0.46
-0.55
-0.61
-0.62
-0.56
-0.42
-0.26
-0.09
0.05
0.15
0.24
0.32
0.43
0.55
0.65
0.67
0.57
0.38
0.15
-0.00
-0.02
0.10
0.30
0.49
0.61
0.61
0.54
0.42
0.34
0.31
0.32
0.34
0.32
0.21
0.03
-0.17
-0.28
-0.26
-0.16
-0.09
-0.17
-0.45
-0.84
-1.12
-1.14
-0.85
-0.38
0.03
0.19
0.04
-0.30
-0.60
-0.70
-0.57
-0.30
-0.04
0.14
0.27
0.45
0.74
1.08
1.35
1.40
1.20
0.83
0.45
0.22
0.13
0.12
0.05
-0.13
-0.40
-0.62
-0.69
-0.59
-0.33
-0.03
0.22
0.37
0.39
0.27
0.05
-0.24
-0.54
-0.77
-0.89
-0.88
-0.76
-0.56
-0.31
-0.03
0.23
0.42
0.49
0.39
0.16
-0.10
-0.27
-0.27
-0.10
0.16
0.43
0.63
0.75
0.82
0.84
0.81
0.70
0.49
0.22
-0.03
-0.18
-0.19
-0.11
-0.05
-0.10
-0.28
-0.50
-0.62
-0.56
-0.35
-0.10
0.01
-0.05
-0.25
-0.45
-0.55
-0.54
-0.51
-0.58
-0.77
-0.98
-1.07
-0.95
-0.68
-0.42
-0.32
-0.41
-0.58
-0.61
-0.37
0.11
0.65
1.03
1.13
0.99
0.74
0.53
0.41
0.36
0.31
0.25
0.22
0.27
0.42
0.60
0.70
0.65
0.44
0.17
-0.08
-0.23
-0.27
-0.26
-0.27
-0.31
-0.37
-0.42
-0.41
-0.34
-0.24
-0.13
-0.04
0.04
0.12
0.20
0.29
0.35
0.38
0.37
0.32
0.24
0.13
0.01
-0.10
-0.15
-0.12
-0.01
0.13
0.25
0.27
0.20
0.06
-0.09
-0.18
-0.18
-0.11
0.01
0.14
0.22
0.23
0.15
0.01
-0.17
-0.31
-0.40
-0.42
-0.40
-0.37
-0.33
-0.29
-0.24
-0.18
-0.13
-0.13
-0.19
-0.31
-0.45
-0.54
-0.53
-0.40
-0.17
0.14
0.46
0.72
0.90
0.97
0.92
0.76
0.49
0.15
-0.16
-0.38
-0.44
-0.35
-0.18
-0.05
-0.06
-0.22
-0.46
-0.65
-0.67
-0.49
-0.15
0.22
0.46
0.47
0.28
-0.01
-0.25
-0.32
-0.21
-0.02
0.11
0.07
-0.13
-0.40
-0.60
-0.61
-0.38
0.02
0.49
0.90
1.13
1.15
0.98
0.68
0.33
-0.02
-0.33
-0.57
-0.72
-0.75
-0.62
-0.36
-0.02
0.30
0.51
0.56
0.46
0.28
0.08
-0.07
-0.18
-0.22
-0.16
0.01
0.30
0.67
1.00
1.18
1.12
0.84
0.43
0.01
-0.29
-0.41
-0.35
-0.18
0.02
0.17
0.21
0.16
0.05
-0.07
-0.18
-0.28
-0.40
-0.55
-0.65
-0.63
-0.43
-0.07
0.29
0.51
0.50
0.29
0.04
-0.08
-0.01
0.17
0.31
0.28
0.05
-0.29
-0.58
-0.70
-0.59
-0.33
-0.01
0.26
0.41
0.43
0.38
0.29
0.18
0.06
-0.13
-0.40
-0.72
-0.99
-1.09
-0.95
-0.59
-0.16
0.19
0.32
0.23
-0.00
-0.26
-0.43
-0.47
-0.40
-0.23
0.02
0.35
0.70
0.97
1.09
0.96
0.63
0.19
-0.24
-0.54
-0.69
-0.67
-0.55
-0.35
-0.12
0.13
0.38
0.58
0.73
0.81
0.79
0.71
0.57
0.40
0.22
0.02
-0.17
-0.35
-0.50
-0.61
-0.68
-0.71
-0.69
-0.61
-0.47
-0.30
-0.15
-0.10
-0.17
-0.35
-0.54
-0.63
-0.55
-0.32
-0.06
0.12
0.12
-0.04
-0.24
-0.37
-0.35
-0.19
0.03
0.23
0.35
0.37
0.33
0.26
0.23
0.25
0.33
0.40
0.43
0.38
0.26
0.12
-0.00
-0.08
-0.12
-0.17
-0.26
-0.41
-0.58
-0.70
-0.69
-0.49
-0.08
0.48
1.06
1.51
1.69
1.57
1.21
0.72
0.27
-0.07
-0.26
-0.32
-0.27
-0.14
0.06
0.27
0.44
0.48
0.37
0.14
-0.12
-0.32
-0.38
-0.32
-0.16
-0.01
0.09
0.13
0.13
0.15
0.22
0.35
0.49
0.57
0.53
0.36
0.10
-0.17
-0.37
-0.45
-0.42
-0.32
-0.22
-0.14
-0.08
-0.05
-0.04
-0.07
-0.17
-0.35
-0.58
-0.80
-0.92
-0.90
-0.76
-0.59
-0.46
-0.43
-0.48
-0.54
-0.53
-0.41
-0.24
-0.07
0.00
-0.04
-0.16
-0.29
-0.35
-0.32
-0.18
0.03
0.23
0.38
0.41
0.33
0.18
0.04
-0.01
0.08
0.25
0.44
0.55
0.52
0.40
0.23
0.09
0.02
0.02
0.03
0.05
0.08
0.11
0.14
0.18
0.18
0.17
0.17
0.20
0.25
0.29
0.27
0.15
-0.01
-0.16
-0.24
-0.23
-0.18
-0.16
-0.19
-0.27
-0.34
-0.35
-0.29
-0.19
-0.10
-0.09
-0.13
-0.18
-0.17
-0.06
0.15
0.36
0.49
0.46
0.27
0.01
-0.20
-0.23
-0.06
0.22
0.47
0.55
0.44
0.20
-0.05
-0.22
-0.29
-0.30
-0.30
-0.29
-0.22
-0.04
0.24
0.54
0.77
0.84
0.75
0.58
0.41
0.32
0.29
0.31
0.35
0.40
0.46
0.48
0.42
0.20
-0.18
-0.60
-0.92
-1.01
-0.87
-0.61
-0.39
-0.32
-0.38
-0.45
-0.44
-0.30
-0.09
0.10
0.21
0.27
0.33
0.45
0.59
0.70
0.72
0.65
0.54
0.46
0.38
0.28
0.11
-0.10
-0.30
-0.40
-0.37
-0.25
-0.14
-0.08
-0.08
-0.05
0.08
0.32
0.57
0.70
0.60
0.26
-0.20
-0.62
-0.83
-0.78
-0.53
-0.19
0.08
0.17
0.06
-0.22
-0.54
-0.78
-0.85
-0.77
-0.59
-0.40
-0.30
-0.29
-0.39
-0.55
-0.72
-0.89
-1.00
-1.02
-0.94
-0.76
-0.51
-0.26
-0.06
0.05
0.08
0.03
-0.04
-0.10
-0.09
0.07
0.38
0.82
1.27
1.58
1.62
1.36
0.86
0.30
-0.13
-0.32
-0.27
-0.10
0.04
0.05
-0.04
-0.13
-0.12
0.06
0.34
0.59
0.67
0.52
0.17
-0.26
-0.64
-0.87
-0.94
-0.85
-0.61
-0.24
0.21
0.69
1.08
1.28
1.26
1.04
0.74
0.48
0.33
0.30
0.30
0.27
0.15
0.01
-0.08
-0.07
0.05
0.23
0.38
0.44
0.41
0.32
0.22
0.15
0.10
0.04
-0.05
-0.14
-0.20
-0.21
-0.15
-0.08
-0.02
-0.01
-0.09
-0.24
-0.47
-0.73
-0.98
-1.14
-1.12
-0.90
-0.53
-0.09
0.28
0.50
0.56
0.46
0.26
-0.01
-0.31
-0.60
-0.80
-0.86
-0.76
-0.53
-0.25
0.02
0.24
0.40
0.53
0.64
0.72
0.73
0.64
0.45
0.22
0.01
-0.12
-0.14
-0.09
-0.01
0.02
-0.04
-0.19
-0.40
-0.62
-0.80
-0.91
-0.94
-0.89
-0.74
-0.51
-0.24
0.01
0.20
0.28
0.23
0.09
-0.07
-0.21
-0.29
-0.28
-0.19
-0.04
0.17
0.40
0.64
0.84
0.99
1.08
1.13
1.16
1.17
1.14
1.02
0.79
0.50
0.22
0.03
-0.06
-0.12
-0.25
-0.50
-0.83
-1.09
-1.16
-0.98
-0.61
-0.17
0.21
0.45
0.56
0.55
0.45
0.29
0.09
-0.11
-0.24
-0.24
-0.12
0.03
0.11
0.05
-0.12
-0.30
-0.38
-0.27
-0.03
0.21
0.31
0.21
-0.02
-0.22
-0.26
-0.10
0.19
0.44
0.54
0.46
0.29
0.14
0.07
0.08
0.09
0.04
-0.11
-0.29
-0.45
-0.50
-0.44
-0.29
-0.11
-0.00
-0.00
-0.12
-0.30
-0.47
-0.56
-0.57
-0.51
-0.43
-0.33
-0.20
-0.01
0.24
0.53
0.78
0.90
0.86
0.65
0.37
0.11
-0.07
-0.15
-0.17
-0.20
-0.29
-0.44
-0.60
-0.70
-0.69
-0.58
-0.43
-0.32
-0.34
-0.48
-0.65
-0.74
-0.63
-0.30
0.15
0.55
0.77
0.75
0.56
0.33
0.22
0.26
0.38
0.42
0.29
0.00
-0.32
-0.52
-0.51
-0.31
-0.04
0.16
0.23
0.17
0.06
-0.03
-0.07
-0.07
-0.05
-0.04
-0.01
0.03
0.10
0.18
0.22
0.21
0.14
0.03
-0.08
-0.14
-0.09
0.09
0.35
0.61
0.77
0.72
0.48
0.14
-0.15
-0.24
-0.05
0.36
0.85
1.23
1.38
1.28
0.99
0.60
0.20
-0.18
-0.51
-0.78
-0.96
-1.02
-0.95
-0.79
-0.57
-0.35
-0.15
0.00
0.13
0.22
0.30
0.37
0.44
0.50
0.55
0.55
0.45
0.27
0.01
-0.27
-0.50
-0.61
-0.59
-0.44
-0.23
-0.03
0.07
0.02
-0.17
-0.42
-0.62
-0.69
-0.61
-0.42
-0.17
0.09
0.31
0.47
0.51
0.42
0.19
-0.13
-0.42
-0.58
-0.57
-0.44
-0.29
-0.22
-0.27
-0.37
-0.46
-0.51
-0.54
-0.59
-0.68
-0.74
-0.67
-0.41
0.01
0.47
0.81
0.95
0.88
0.70
0.55
0.50
0.58
0.72
0.86
0.97
1.02
1.02
0.97
0.84
0.58
0.18
-0.29
-0.71
-0.96
-0.96
-0.73
-0.44
-0.25
-0.30
-0.58
-0.90
-1.11
-1.05
-0.76
-0.37
-0.07
0.03
-0.08
-0.27
-0.44
-0.54
-0.58
-0.63
-0.69
-0.71
-0.58
-0.23
0.29
0.85
1.25
1.36
1.15
0.74
0.28
-0.05
-0.18
-0.12
0.06
0.26
0.42
0.52
0.57
0.61
0.68
0.79
0.89
0.94
0.87
0.65
0.32
-0.05
-0.37
-0.58
-0.68
-0.68
-0.64
-0.57
-0.46
-0.32
-0.17
-0.04
0.01
-0.04
-0.14
-0.22
-0.22
-0.10
0.11
0.32
0.44
0.44
0.36
0.24
0.15
0.12
0.13
0.13
0.08
-0.01
-0.11
-0.17
-0.15
-0.11
-0.09
-0.12
-0.18
-0.19
-0.07
0.19
0.51
0.77
0.85
0.70
0.38
0.02
-0.25
-0.33
-0.26
-0.15
-0.13
-0.26
-0.52
-0.78
-0.91
-0.85
-0.62
-0.29
0.02
0.28
0.47
0.62
0.71
0.69
0.52
0.19
-0.22
-0.60
-0.84
-0.91
-0.83
-0.69
-0.58
-0.57
-0.61
-0.65
-0.58
-0.35
0.02
0.46
0.83
1.03
1.00
0.77
0.44
0.11
-0.12
-0.21
-0.14
0.06
0.35
0.65
0.88
0.95
0.86
0.62
0.34
0.09
-0.10
-0.22
-0.33
-0.45
-0.58
-0.68
-0.71
-0.64
-0.48
-0.25
-0.01
0.21
0.36
0.42
0.38
0.24
0.04
-0.15
-0.29
-0.32
-0.23
-0.03
0.22
0.46
0.60
0.61
0.47
0.23
-0.02
-0.21
-0.28
-0.23
-0.10
0.03
0.11
0.09
-0.03
-0.20
-0.39
-0.53
-0.59
-0.55
-0.40
-0.20
0.00
0.17
0.28
0.32
0.30
0.22
0.10
-0.02
-0.06
0.02
0.26
0.60
0.93
1.11
1.09
0.88
0.60
0.37
0.28
0.28
0.27
0.16
-0.07
-0.37
-0.64
-0.78
-0.79
-0.71
-0.59
-0.49
-0.39
-0.24
-0.03
0.22
0.43
0.49
0.36
0.01
-0.47
-0.98
-1.39
-1.61
-1.62
-1.45
-1.20
-0.92
-0.68
-0.50
-0.38
-0.32
-0.30
-0.29
-0.25
-0.10
0.17
0.55
0.93
1.18
1.18
0.93
0.52
0.15
-0.01
0.10
0.44
0.83
1.09
1.12
0.91
0.57
0.24
0.02
-0.04
-0.01
0.05
0.07
0.03
0.02
0.11
0.35
0.68
0.97
1.08
0.94
0.60
0.21
-0.10
-0.26
-0.33
-0.38
-0.50
-0.62
-0.67
-0.55
-0.25
0.12
0.37
0.37
0.07
-0.44
-0.99
-1.40
-1.57
-1.46
-1.12
-0.61
-0.02
0.54
0.98
1.19
1.10
0.74
0.22
-0.29
-0.61
-0.69
-0.57
-0.38
-0.26
-0.27
-0.39
-0.56
-0.67
-0.69
-0.58
-0.37
-0.09
0.25
0.59
0.85
1.00
1.02
0.94
0.83
0.73
0.62
0.48
0.26
-0.02
-0.32
-0.57
-0.72
-0.77
-0.72
-0.61
-0.43
-0.20
0.06
0.29
0.43
0.44
0.35
0.25
0.21
0.28
0.43
0.58
0.62
0.52
0.30
0.03
-0.21
-0.34
-0.36
-0.27
-0.09
0.13
0.34
0.45
0.41
0.21
-0.09
-0.39
-0.55
-0.52
-0.32
-0.03
0.27
0.50
0.65
0.69
0.63
0.48
0.27
0.07
-0.03
-0.01
0.11
0.25
0.30
0.21
0.00
-0.28
-0.56
-0.78
-0.92
-0.97
-0.91
-0.74
-0.50
-0.26
-0.11
-0.12
-0.27
-0.43
-0.49
-0.36
-0.12
0.08
0.10
-0.14
-0.54
-0.91
-1.06
-0.92
-0.56
-0.13
0.21
0.37
0.37
0.32
0.29
0.35
0.48
0.65
0.80
0.86
0.79
0.57
0.25
-0.09
-0.35
-0.45
-0.41
-0.25
-0.03
0.22
0.47
0.71
0.88
0.94
0.85
0.64
0.36
0.10
-0.10
-0.24
-0.38
-0.53
-0.66
-0.72
-0.69
-0.58
-0.47
-0.43
-0.45
-0.47
-0.39
-0.17
0.17
0.48
0.65
0.57
0.30
-0.04
-0.31
-0.42
-0.34
-0.15
0.06
0.21
0.26
0.21
0.11
0.03
0.00
0.04
0.12
0.18
0.20
0.21
0.28
0.47
0.79
1.13
1.36
1.36
1.10
0.69
0.26
-0.08
-0.29
-0.45
-0.62
-0.81
-0.97
-1.01
-0.89
-0.63
-0.32
-0.10
-0.02
-0.07
-0.18
-0.25
-0.20
-0.03
0.19
0.40
0.52
0.53
0.47
0.37
0.26
0.17
0.10
0.04
-0.02
-0.05
-0.03
0.08
0.27
0.50
0.68
0.71
0.55
0.20
-0.22
-0.60
-0.84
-0.88
-0.75
-0.53
-0.32
-0.19
-0.17
-0.22
-0.29
-0.32
-0.29
-0.24
-0.25
-0.35
-0.53
-0.69
-0.73
-0.57
-0.24
0.12
0.39
0.47
0.38
0.21
0.08
0.05
0.12
0.21
0.24
0.18
0.06
-0.04
-0.06
0.01
0.13
0.23
0.25
0.22
0.20
0.25
0.36
0.47
0.46
0.31
0.07
-0.16
-0.27
-0.22
-0.06
0.11
0.20
0.18
0.09
-0.03
-0.12
-0.16
-0.16
-0.13
-0.10
-0.08
-0.09
-0.14
-0.21
-0.31
-0.44
-0.60
-0.77
-0.93
-1.00
-0.94
-0.73
-0.39
-0.03
0.27
0.40
0.34
0.09
-0.25
-0.57
-0.71
-0.61
-0.27
0.19
0.63
0.93
1.02
0.96
0.81
0.63
0.46
0.31
0.16
0.00
-0.12
-0.17
-0.11
-0.00
0.11
0.14
0.05
-0.12
-0.31
-0.41
-0.34
-0.11
0.23
0.56
0.79
0.87
0.80
0.62
0.38
0.09
-0.21
-0.47
-0.63
-0.65
-0.52
-0.27
-0.01
0.14
0.12
-0.07
-0.37
-0.64
-0.80
-0.82
-0.69
-0.47
-0.19
0.08
0.31
0.47
0.53
0.48
0.37
0.24
0.14
0.13
0.20
0.37
0.58
0.79
0.95
1.01
0.98
0.86
0.71
0.54
0.35
0.17
-0.02
-0.18
-0.27
-0.23
-0.06
0.21
0.50
0.74
0.86
0.84
0.71
0.50
0.26
0.06
-0.10
-0.19
-0.25
-0.29
-0.32
-0.33
-0.32
-0.30
-0.27
-0.26
-0.23
-0.18
-0.12
-0.07
-0.10
-0.26
-0.54
-0.88
-1.15
-1.27
-1.20
-0.99
-0.72
-0.47
-0.30
-0.21
-0.17
-0.12
-0.07
-0.03
-0.04
-0.09
-0.15
-0.17
-0.11
0.00
0.09
0.09
-0.02
-0.20
-0.35
-0.38
-0.27
-0.05
0.17
0.31
0.35
0.36
0.38
0.46
0.59
0.72
0.78
0.73
0.60
0.43
0.28
0.21
0.21
0.29
0.38
0.45
0.42
0.27
0.01
-0.31
-0.62
-0.83
-0.89
-0.81
-0.64
-0.43
-0.24
-0.07
0.07
0.19
0.27
0.28
0.23
0.14
0.02
-0.12
-0.27
-0.44
-0.59
-0.69
-0.70
-0.64
-0.54
-0.48
-0.49
-0.54
-0.53
-0.38
-0.07
0.34
0.74
1.01
1.13
1.10
0.98
0.82
0.67
0.54
0.40
0.27
0.16
0.12
0.18
0.37
0.64
0.88
1.01
0.94
0.66
0.26
-0.15
-0.47
-0.64
-0.69
-0.64
-0.53
-0.40
-0.23
-0.08
0.02
0.02
-0.12
-0.36
-0.61
-0.79
-0.85
-0.78
-0.64
-0.49
-0.36
-0.26
-0.16
-0.02
0.12
0.24
0.31
0.31
0.30
0.31
0.38
0.50
0.62
0.64
0.53
0.28
-0.05
-0.36
-0.56
-0.62
-0.54
-0.36
-0.16
0.01
0.12
0.15
0.13
0.06
-0.07
-0.24
-0.44
-0.62
-0.71
-0.69
-0.56
-0.36
-0.19
-0.08
-0.04
-0.04
-0.05
-0.00
0.10
0.26
0.44
0.61
0.72
0.74
0.66
0.49
0.27
0.04
-0.17
-0.31
-0.36
-0.29
-0.12
0.10
0.28
0.35
0.28
0.13
0.02
0.02
0.17
0.38
0.52
0.53
0.39
0.19
-0.02
-0.19
-0.35
-0.53
-0.68
-0.75
-0.64
-0.37
-0.03
0.21
0.24
0.08
-0.15
-0.25
-0.12
0.16
0.45
0.55
0.42
0.13
-0.17
-0.32
-0.27
-0.11
0.07
0.15
0.14
0.06
0.01
0.02
0.10
0.24
0.40
0.54
0.60
0.52
0.27
-0.12
-0.56
-0.92
-1.09
-1.04
-0.81
-0.53
-0.29
-0.14
-0.03
0.11
0.31
0.57
0.80
0.92
0.88
0.69
0.42
0.16
-0.05
-0.21
-0.33
-0.41
-0.43
-0.35
-0.14
0.14
0.37
0.45
0.28
-0.08
-0.52
-0.90
-1.12
-1.16
-1.06
-0.86
-0.62
-0.35
-0.06
0.23
0.49
0.69
0.83
0.94
1.02
1.09
1.11
1.03
0.83
0.51
0.15
-0.12
-0.21
-0.09
0.16
0.43
0.58
0.58
0.45
0.26
0.07
-0.09
-0.26
-0.45
-0.62
-0.73
-0.73
-0.63
-0.48
-0.37
-0.35
-0.41
-0.52
-0.62
-0.67
-0.64
-0.50
-0.26
0.05
0.35
0.56
0.61
0.48
0.23
-0.05
-0.24
-0.28
-0.16
0.10
0.41
0.71
0.92
0.99
0.92
0.75
0.55
0.36
0.21
0.11
0.04
0.01
0.02
0.09
0.17
0.21
0.14
-0.07
-0.37
-0.66
-0.84
-0.88
-0.80
-0.64
-0.47
-0.31
-0.18
-0.06
0.04
0.10
0.13
0.12
0.13
0.18
0.28
0.38
0.41
0.33
0.09
-0.25
-0.63
-0.92
-1.06
-1.02
-0.83
-0.59
-0.37
-0.17
0.01
0.21
0.41
0.55
0.55
0.37
0.03
-0.34
-0.59
-0.61
-0.35
0.11
0.65
1.12
1.41
1.45
1.25
0.89
0.48
0.13
-0.10
-0.25
-0.38
-0.55
-0.77
-0.96
-1.06
-1.01
-0.85
-0.65
-0.49
-0.38
-0.32
-0.28
-0.27
-0.30
-0.38
-0.46
-0.48
-0.39
-0.18
0.08
0.30
0.45
0.52
0.56
0.62
0.68
0.70
0.63
0.48
0.30
0.22
0.30
0.54
0.84
1.03
1.01
0.75
0.36
0.01
-0.16
-0.08
0.20
0.51
0.69
0.65
0.37
-0.04
-0.48
-0.85
-1.11
-1.25
-1.28
-1.17
-0.93
-0.60
-0.27
-0.01
0.12
0.17
0.22
0.33
0.49
0.61
0.62
0.47
0.23
-0.01
-0.15
-0.14
-0.02
0.16
0.32
0.40
0.37
0.21
-0.04
-0.32
-0.55
-0.64
-0.56
-0.35
-0.07
0.18
0.31
0.29
0.15
-0.06
-0.25
-0.37
-0.39
-0.35
-0.28
-0.19
-0.08
0.07
0.28
0.50
0.67
0.72
0.62
0.42
0.18
-0.01
-0.11
-0.14
-0.14
-0.16
-0.23
-0.34
-0.45
-0.50
-0.46
-0.32
-0.11
0.07
0.17
0.17
0.07
-0.05
-0.17
-0.24
-0.28
-0.27
-0.22
-0.07
0.17
0.46
0.72
0.85
0.80
0.61
0.34
0.07
-0.18
-0.42
-0.66
-0.88
-1.02
-0.98
-0.71
-0.27
0.23
0.63
0.81
0.71
0.43
0.07
-0.20
-0.27
-0.11
0.25
0.67
1.02
1.19
1.13
0.87
0.48
0.07
-0.28
-0.51
-0.60
-0.55
-0.39
-0.16
0.07
0.23
0.25
0.08
-0.24
-0.60
-0.87
-0.92
-0.71
-0.31
0.12
0.44
0.54
0.41
0.17
-0.06
-0.16
-0.09
0.09
0.29
0.42
0.44
0.35
0.19
0.01
-0.14
-0.24
-0.27
-0.25
-0.21
-0.15
-0.08
0.01
0.11
0.21
0.27
0.29
0.28
0.25
0.24
0.25
0.27
0.25
0.15
-0.05
-0.31
-0.57
-0.76
-0.83
-0.79
-0.66
-0.51
-0.41
-0.38
-0.43
-0.49
-0.48
-0.35
-0.11
0.18
0.38
0.42
0.26
-0.07
-0.45
-0.79
-0.98
-0.98
-0.80
-0.47
-0.08
0.28
0.53
0.67
0.70
0.64
0.55
0.44
0.30
0.15
0.01
-0.07
-0.07
0.00
0.11
0.22
0.32
0.43
0.56
0.66
0.70
0.62
0.41
0.12
-0.15
-0.31
-0.31
-0.14
0.14
0.46
0.69
0.76
0.64
0.35
0.02
-0.24
-0.32
-0.21
-0.01
0.14
0.12
-0.07
-0.35
-0.59
-0.67
-0.55
-0.26
0.08
0.39
0.57
0.59
0.43
0.15
-0.20
-0.50
-0.70
-0.74
-0.67
-0.56
-0.47
-0.43
-0.44
-0.48
-0.51
-0.54
-0.54
-0.47
-0.30
-0.03
0.29
0.56
0.68
0.61
0.39
0.15
-0.03
-0.09
-0.05
0.02
0.08
0.10
0.13
0.20
0.34
0.57
0.87
1.19
1.42
1.50
1.36
1.00
0.51
0.02
-0.32
-0.48
-0.48
-0.42
-0.40
-0.44
-0.51
-0.54
-0.50
-0.37
-0.19
-0.04
0.07
0.11
0.09
0.04
-0.02
-0.08
-0.10
-0.08
-0.03
0.02
0.05
0.04
-0.03
-0.17
-0.37
-0.61
-0.85
-1.01
-1.02
-0.82
-0.47
-0.09
0.19
0.28
0.21
0.05
-0.06
-0.07
-0.01
0.06
0.07
0.07
0.12
0.30
0.61
0.92
1.06
0.91
0.45
-0.15
-0.68
-0.94
-0.87
-0.56
-0.17
0.14
0.28
0.29
0.21
0.09
-0.04
-0.18
-0.26
-0.24
-0.06
0.21
0.45
0.51
0.33
-0.02
-0.38
-0.59
-0.61
-0.50
-0.39
-0.35
-0.38
-0.39
-0.30
-0.07
0.24
0.52
0.69
0.72
0.61
0.45
0.26
0.08
-0.11
-0.30
-0.49
-0.60
-0.59
-0.41
-0.09
0.31
0.69
0.95
1.05
1.00
0.88
0.75
0.64
0.53
0.37
0.11
-0.24
-0.57
-0.76
-0.72
-0.46
-0.10
0.18
0.22
0.02
-0.31
-0.60
-0.71
-0.65
-0.49
-0.36
-0.30
-0.30
-0.27
-0.19
-0.05
0.09
0.18
0.20
0.18
0.19
0.28
0.46
0.68
0.85
0.87
0.70
0.37
-0.04
-0.41
-0.64
-0.72
-0.68
-0.56
-0.41
-0.26
-0.12
0.01
0.10
0.12
0.11
0.11
0.19
0.35
0.57
0.77
0.85
0.77
0.58
0.34
0.15
0.03
-0.04
-0.14
-0.30
-0.51
-0.69
-0.72
-0.55
-0.22
0.12
0.29
0.19
-0.14
-0.52
-0.72
-0.61
-0.20
0.34
0.80
1.04
1.02
0.79
0.50
0.24
0.07
-0.02
-0.03
-0.03
-0.06
-0.15
-0.27
-0.42
-0.56
-0.68
-0.77
-0.83
-0.84
-0.75
-0.51
-0.19
0.12
0.28
0.21
-0.03
-0.28
-0.37
-0.18
0.25
0.75
1.10
1.15
0.87
0.39
-0.12
-0.51
-0.69
-0.69
-0.62
-0.59
-0.63
-0.71
-0.70
-0.49
-0.08
0.40
0.75
0.80
0.54
0.12
-0.22
-0.28
-0.08
0.23
0.43
0.37
0.04
-0.41
-0.78
-0.96
-0.92
-0.77
-0.61
-0.50
-0.47
-0.45
-0.40
-0.27
-0.09
0.11
0.31
0.46
0.58
0.71
0.86
1.06
1.24
1.32
1.24
0.97
0.57
0.14
-0.20
-0.38
-0.36
-0.17
0.12
0.45
0.74
0.95
1.01
0.92
0.71
0.44
0.18
-0.01
-0.13
-0.17
-0.14
-0.07
0.04
0.14
0.19
0.16
0.05
-0.09
-0.19
-0.23
-0.23
-0.26
-0.37
-0.58
-0.79
-0.89
-0.80
-0.53
-0.18
0.12
0.24
0.20
0.04
-0.14
-0.27
-0.33
-0.32
-0.27
-0.22
-0.18
-0.17
-0.20
-0.25
-0.30
-0.33
-0.33
-0.29
-0.26
-0.26
-0.32
-0.41
-0.49
-0.49
-0.36
-0.11
0.22
0.54
0.74
0.79
0.69
0.51
0.31
0.12
-0.08
-0.30
-0.49
-0.60
-0.54
-0.31
0.01
0.31
0.52
0.64
0.72
0.85
1.01
1.14
1.13
0.94
0.60
0.20
-0.14
-0.35
-0.43
-0.38
-0.22
-0.01
0.21
0.35
0.33
0.13
-0.21
-0.57
-0.83
-0.95
-0.92
-0.80
-0.64
-0.47
-0.29
-0.12
0.01
0.07
0.07
0.08
0.17
0.42
0.81
1.20
1.45
1.44
1.15
0.68
0.17
-0.26
-0.54
-0.66
-0.66
-0.57
-0.43
-0.27
-0.11
0.01
0.10
0.15
0.14
0.06
-0.09
-0.31
-0.55
-0.79
-0.95
-1.02
-0.98
-0.85
-0.64
-0.35
0.01
0.41
0.76
0.97
0.94
0.65
0.17
-0.35
-0.72
-0.84
-0.71
-0.45
-0.20
-0.10
-0.13
-0.25
-0.34
-0.36
-0.34
-0.35
-0.44
-0.61
-0.79
-0.86
-0.74
-0.42
0.02
0.46
0.79
0.93
0.88
0.67
0.38
0.10
-0.11
-0.21
-0.17
-0.02
0.18
0.39
0.54
0.62
0.63
0.58
0.48
0.32
0.11
-0.09
-0.22
-0.19
0.00
0.32
0.62
0.80
0.78
0.60
0.37
0.19
0.12
0.14
0.16
0.09
-0.11
-0.39
-0.66
-0.79
-0.75
-0.57
-0.36
-0.23
-0.20
-0.25
-0.29
-0.26
-0.18
-0.12
-0.13
-0.22
-0.33
-0.34
-0.21
0.05
0.33
0.54
0.64
0.65
0.58
0.49
0.37
0.24
0.12
0.06
0.11
0.27
0.45
0.59
0.62
0.56
0.49
0.48
0.54
0.63
0.66
0.59
0.44
0.29
0.18
0.12
0.05
-0.12
-0.39
-0.73
-1.03
-1.16
-1.10
-0.86
-0.53
-0.19
0.08
0.25
0.31
0.27
0.16
-0.01
-0.20
-0.38
-0.54
-0.66
-0.75
-0.79
-0.79
-0.74
-0.64
-0.46
-0.22
0.08
0.38
0.60
0.69
0.62
0.45
0.22
0.03
-0.09
-0.15
-0.18
-0.21
-0.23
-0.22
-0.17
-0.12
-0.09
-0.11
-0.15
-0.15
-0.05
0.13
0.36
0.55
0.66
0.67
0.65
0.65
0.69
0.73
0.73
0.64
0.44
0.17
-0.13
-0.41
-0.62
-0.74
-0.78
-0.79
-0.80
-0.81
-0.81
-0.76
-0.65
-0.50
-0.39
-0.39
-0.52
-0.69
-0.77
-0.64
-0.28
0.20
0.64
0.88
0.89
0.74
0.53
0.37
0.26
0.18
0.09
0.06
0.14
0.40
0.79
1.16
1.31
1.11
0.59
-0.06
-0.61
-0.86
-0.78
-0.45
-0.08
0.17
0.25
0.17
0.04
-0.07
-0.14
-0.22
-0.34
-0.47
-0.55
-0.47
-0.21
0.22
0.70
1.10
1.33
1.38
1.27
1.07
0.82
0.54
0.23
-0.10
-0.41
-0.66
-0.83
-0.88
-0.79
-0.58
-0.28
0.02
0.24
0.31
0.17
-0.10
-0.41
-0.65
-0.76
-0.73
-0.63
-0.49
-0.35
-0.18
0.03
0.27
0.50
0.63
0.64
0.51
0.29
0.01
-0.29
-0.59
-0.89
-1.10
-1.15
-0.99
-0.64
-0.23
0.12
0.28
0.27
0.15
0.01
-0.06
-0.06
-0.05
-0.06
-0.11
-0.17
-0.21
-0.19
-0.14
-0.09
-0.05
-0.04
0.00
0.11
0.32
0.61
0.94
1.24
1.46
1.54
1.48
1.30
1.05
0.80
0.61
0.50
0.46
0.43
0.35
0.18
-0.08
-0.41
-0.72
-0.94
-1.02
-0.92
-0.66
-0.29
0.08
0.33
0.38
0.18
-0.21
-0.68
-1.07
-1.27
-1.25
-1.03
-0.68
-0.28
0.07
0.32
0.40
0.29
0.02
-0.31
-0.56
-0.64
-0.51
-0.23
0.06
0.29
0.43
0.54
0.68
0.89
1.08
1.14
1.00
0.69
0.33
0.08
0.01
0.09
0.20
0.20
0.07
-0.15
-0.30
-0.31
-0.19
-0.04
0.03
-0.07
-0.32
-0.66
-0.96
-1.15
-1.17
-1.01
-0.74
-0.42
-0.15
-0.00
0.00
-0.09
-0.18
-0.17
0.01
0.34
0.73
1.07
1.25
1.23
1.05
0.75
0.40
0.03
-0.32
-0.61
-0.79
-0.82
-0.68
-0.40
-0.06
0.25
0.47
0.56
0.52
0.38
0.18
-0.02
-0.15
-0.16
-0.01
0.25
0.49
0.58
0.42
0.03
-0.46
-0.88
-1.07
-0.99
-0.73
-0.38
-0.05
0.21
0.36
0.39
0.30
0.10
-0.13
-0.28
-0.22
0.04
0.42
0.74
0.84
0.63
0.19
-0.34
-0.79
-1.05
-1.12
-1.09
-1.01
-0.91
-0.76
-0.51
-0.12
0.34
0.75
0.97
0.94
0.67
0.28
-0.06
-0.27
-0.32
-0.25
-0.12
0.03
0.19
0.36
0.52
0.63
0.65
0.53
0.28
-0.06
-0.40
-0.64
-0.69
-0.52
-0.18
0.21
0.51
0.61
0.50
0.30
0.13
0.12
0.27
0.50
0.68
0.71
0.59
0.38
0.16
-0.05
-0.24
-0.46
-0.71
-0.95
-1.08
-1.04
-0.77
-0.35
0.11
0.45
0.57
0.44
0.15
-0.17
-0.40
-0.45
-0.31
-0.06
0.18
0.29
0.21
-0.03
-0.36
-0.66
-0.81
-0.78
-0.59
-0.29
0.01
0.25
0.40
0.46
0.45
0.36
0.17
-0.10
-0.42
-0.68
-0.77
-0.64
-0.31
0.10
0.46
0.66
0.69
0.60
0.47
0.34
0.22
0.08
-0.03
-0.05
0.11
0.43
0.80
1.03
0.98
0.63
0.08
-0.47
-0.84
-0.97
-0.86
-0.63
-0.36
-0.12
0.07
0.21
0.32
0.41
0.50
0.60
0.68
0.70
0.61
0.44
0.23
0.10
0.09
0.20
0.31
0.30
0.10
-0.23
-0.54
-0.66
-0.51
-0.15
0.26
0.54
0.58
0.40
0.14
-0.07
-0.13
-0.06
0.02
0.02
-0.11
-0.31
-0.51
-0.60
-0.58
-0.47
-0.37
-0.33
-0.35
-0.37
-0.34
-0.24
-0.12
-0.05
-0.07
-0.16
-0.24
-0.20
-0.03
0.22
0.42
0.45
0.27
-0.04
-0.33
-0.44
-0.33
-0.06
0.23
0.43
0.49
0.47
0.47
0.56
0.71
0.83
0.80
0.55
0.14
-0.31
-0.67
-0.84
-0.82
-0.66
-0.41
-0.14
0.10
0.27
0.35
0.36
0.32
0.27
0.27
0.31
0.38
0.42
0.38
0.23
0.00
-0.26
-0.49
-0.61
-0.61
-0.49
-0.32
-0.14
-0.01
0.08
0.14
0.19
0.22
0.20
0.07
-0.15
-0.43
-0.72
-0.96
-1.10
-1.15
-1.11
-0.97
-0.75
-0.48
-0.22
-0.04
0.04
0.03
0.01
0.06
0.21
0.38
0.47
0.38
0.11
-0.23
-0.49
-0.57
-0.45
-0.19
0.09
0.34
0.53
0.71
0.88
1.02
1.04
0.89
0.53
0.06
-0.36
-0.57
-0.47
-0.08
0.46
0.96
1.23
1.21
0.93
0.51
0.10
-0.21
-0.38
-0.38
-0.25
0.00
0.32
0.62
0.79
0.75
0.47
0.01
-0.50
-0.91
-1.14
-1.12
-0.89
-0.51
-0.08
0.25
0.37
0.26
-0.01
-0.28
-0.37
-0.20
0.16
0.54
0.75
0.67
0.35
-0.06
-0.38
-0.49
-0.36
-0.07
0.26
0.50
0.59
0.53
0.38
0.23
0.14
0.10
0.06
-0.03
-0.17
-0.32
-0.36
-0.25
-0.03
0.19
0.27
0.17
-0.08
-0.35
-0.48
-0.39
-0.12
0.22
0.50
0.60
0.51
0.29
0.04
-0.15
-0.22
-0.20
-0.14
-0.11
-0.16
-0.27
-0.37
-0.43
-0.41
-0.35
-0.30
-0.31
-0.38
-0.48
-0.56
-0.57
-0.50
-0.40
-0.31
-0.29
-0.33
-0.36
-0.31
-0.14
0.13
0.41
0.59
0.64
0.57
0.48
0.44
0.47
0.54
0.55
0.44
0.17
-0.21
-0.61
-0.91
-1.04
-0.98
-0.77
-0.49
-0.24
-0.06
0.08
0.23
0.41
0.64
0.81
0.83
0.66
0.33
-0.01
-0.21
-0.15
0.14
0.57
0.94
1.12
1.04
0.71
0.26
-0.20
-0.53
-0.64
-0.52
-0.23
0.15
0.46
0.59
0.49
0.19
-0.19
-0.54
-0.75
-0.83
-0.80
-0.75
-0.70
-0.63
-0.49
-0.28
-0.02
0.16
0.15
-0.10
-0.53
-1.00
-1.32
-1.38
-1.16
-0.75
-0.27
0.17
0.51
0.75
0.91
0.99
0.98
0.89
0.77
0.72
0.80
1.04
1.35
1.58
1.58
1.29
0.77
0.17
-0.34
-0.63
-0.69
-0.57
-0.40
-0.25
-0.15
-0.06
0.07
0.26
0.46
0.55
0.43
0.07
-0.46
-0.96
-1.26
-1.23
-0.90
-0.41
0.05
0.32
0.37
0.23
0.03
-0.11
-0.13
-0.02
0.15
0.28
0.28
0.10
-0.21
-0.53
-0.73
-0.74
-0.55
-0.26
0.01
0.18
0.23
0.20
0.19
0.24
0.34
0.41
0.35
0.12
-0.21
-0.52
-0.64
-0.49
-0.12
0.33
0.64
0.65
0.37
-0.06
-0.43
-0.59
-0.50
-0.25
0.03
0.26
0.41
0.53
0.63
0.67
0.60
0.37
0.02
-0.32
-0.54
-0.58
-0.47
-0.34
-0.33
-0.46
-0.63
-0.72
-0.60
-0.28
0.12
0.41
0.47
0.30
0.02
-0.18
-0.19
-0.01
0.25
0.42
0.44
0.33
0.21
0.16
0.20
0.27
0.28
0.21
0.09
-0.00
-0.03
-0.00
0.00
-0.10
-0.32
-0.64
-0.97
-1.23
-1.35
-1.31
-1.12
-0.81
-0.44
-0.10
0.10
0.08
-0.12
-0.43
-0.68
-0.76
-0.60
-0.25
0.21
0.65
0.98
1.15
1.17
1.10
0.99
0.87
0.75
0.65
0.55
0.46
0.40
0.37
0.36
0.37
0.39
0.40
0.43
0.46
0.50
0.54
0.56
0.57
0.55
0.48
0.33
0.09
-0.19
-0.42
-0.50
-0.41
-0.19
0.00
0.04
-0.12
-0.42
-0.74
-0.96
-1.04
-1.03
-0.99
-0.93
-0.82
-0.61
-0.29
0.09
0.39
0.52
0.42
0.14
-0.21
-0.46
-0.50
-0.29
0.14
0.66
1.16
1.51
1.65
1.56
1.26
0.82
0.33
-0.11
-0.41
-0.51
-0.42
-0.20
0.02
0.14
0.12
-0.02
-0.20
-0.34
-0.37
-0.29
-0.15
0.00
0.11
0.17
0.18
0.17
0.19
0.22
0.25
0.27
0.24
0.18
0.11
0.05
0.04
0.08
0.17
0.30
0.43
0.49
0.42
0.18
-0.23
-0.74
-1.23
-1.57
-1.71
-1.67
-1.51
-1.32
-1.14
-0.98
-0.78
-0.55
-0.29
-0.03
0.16
0.28
0.27
0.16
-0.04
-0.24
-0.33
-0.22
0.09
0.51
0.86
1.00
0.89
0.62
0.39
0.31
0.39
0.50
0.48
0.24
-0.14
-0.51
-0.76
-0.80
-0.69
-0.52
-0.37
-0.29
-0.29
-0.36
-0.48
-0.59
-0.64
-0.57
-0.37
-0.11
0.12
0.28
0.37
0.47
0.62
0.87
1.13
1.33
1.36
1.23
1.00
0.78
0.64
0.63
0.71
0.81
0.87
0.84
0.71
0.50
0.25
-0.03
-0.31
-0.57
-0.76
-0.83
-0.77
-0.54
-0.19
0.22
0.58
0.82
0.90
0.81
0.60
0.30
-0.02
-0.33
-0.59
-0.76
-0.85
-0.87
-0.86
-0.81
-0.75
-0.67
-0.58
-0.50
-0.48
-0.51
-0.56
-0.59
-0.51
-0.30
-0.02
0.24
0.37
0.35
0.24
0.17
0.23
0.43
0.70
0.90
0.94
0.82
0.59
0.33
0.12
-0.03
-0.13
-0.17
-0.12
0.02
0.22
0.40
0.43
0.25
-0.09
-0.49
-0.79
-0.93
-0.91
-0.84
-0.81
-0.84
-0.84
-0.72
-0.44
-0.07
0.25
0.37
0.25
-0.02
-0.27
-0.34
-0.20
0.04
0.23
0.25
0.12
-0.05
-0.14
-0.06
0.13
0.32
0.42
0.38
0.25
0.12
0.05
0.04
0.05
0.05
0.01
-0.03
-0.02
0.03
0.13
0.22
0.28
0.30
0.29
0.24
0.13
-0.07
-0.36
-0.68
-0.94
-1.04
-0.99
-0.83
-0.66
-0.52
-0.41
-0.28
-0.08
0.16
0.36
0.42
0.35
0.23
0.18
0.27
0.47
0.65
0.68
0.55
0.31
0.13
0.09
0.22
0.45
0.70
0.91
1.05
1.11
1.06
0.87
0.54
0.11
-0.32
-0.62
-0.71
-0.57
-0.27
0.08
0.33
0.40
0.30
0.09
-0.12
-0.25
-0.27
-0.22
-0.17
-0.18
-0.25
-0.32
-0.35
-0.29
-0.19
-0.08
-0.02
-0.01
-0.04
-0.08
-0.09
-0.05
0.01
0.08
0.15
0.23
0.34
0.52
0.72
0.88
0.90
0.68
0.24
-0.31
-0.81
-1.11
-1.12
-0.91
-0.60
-0.31
-0.10
0.02
0.09
0.14
0.18
0.20
0.19
0.18
0.18
0.19
0.17
0.08
-0.11
-0.36
-0.59
-0.72
-0.72
-0.60
-0.42
-0.23
-0.04
0.12
0.25
0.32
0.29
0.18
0.01
-0.15
-0.24
-0.28
-0.27
-0.25
-0.22
-0.17
-0.08
0.01
0.05
-0.01
-0.16
-0.32
-0.40
-0.32
-0.08
0.25
0.56
0.76
0.80
0.68
0.44
0.16
-0.08
-0.21
-0.18
0.01
0.32
0.63
0.83
0.84
0.66
0.35
0.05
-0.15
-0.19
-0.10
0.05
0.17
0.20
0.13
-0.02
-0.23
-0.44
-0.60
-0.65
-0.53
-0.27
0.09
0.42
0.61
0.61
0.42
0.11
-0.23
-0.51
-0.69
-0.74
-0.66
-0.48
-0.23
0.01
0.18
0.21
0.11
-0.09
-0.30
-0.46
-0.51
-0.46
-0.34
-0.20
-0.06
0.05
0.12
0.11
0.02
-0.12
-0.26
-0.34
-0.34
-0.27
-0.19
-0.16
-0.18
-0.22
-0.20
-0.12
0.03
0.20
0.35
0.49
0.62
0.74
0.86
0.95
0.98
0.96
0.88
0.71
0.44
0.10
-0.23
-0.43
-0.41
-0.21
0.05
0.22
0.17
-0.07
-0.37
-0.60
-0.66
-0.57
-0.44
-0.36
-0.38
-0.45
-0.48
-0.39
-0.16
0.13
0.37
0.49
0.47
0.39
0.33
0.37
0.52
0.67
0.70
0.51
0.12
-0.40
-0.90
-1.25
-1.37
-1.25
-0.93
-0.49
0.01
0.46
0.79
0.93
0.84
0.56
0.15
-0.26
-0.56
-0.66
-0.54
-0.27
0.07
0.38
0.59
0.70
0.70
0.60
0.42
0.19
-0.03
-0.17
-0.18
-0.03
0.21
0.47
0.65
0.74
0.76
0.76
0.74
0.65
0.44
0.11
-0.26
-0.55
-0.66
-0.58
-0.45
-0.41
-0.56
-0.83
-1.07
-1.11
-0.87
-0.43
0.05
0.40
0.53
0.44
0.22
-0.03
-0.22
-0.32
-0.32
-0.25
-0.13
-0.01
0.08
0.10
0.09
0.07
0.10
0.18
0.24
0.24
0.14
-0.04
-0.22
-0.30
-0.23
-0.03
0.20
0.36
0.39
0.27
0.04
-0.22
-0.46
-0.60
-0.63
-0.54
-0.35
-0.14
0.00
0.00
-0.13
-0.33
-0.47
-0.45
-0.26
0.01
0.21
0.25
0.10
-0.15
-0.33
-0.31
-0.06
0.33
0.72
0.95
0.98
0.82
0.60
0.40
0.27
0.22
0.23
0.31
0.46
0.64
0.80
0.83
0.70
0.43
0.10
-0.14
-0.23
-0.17
-0.05
0.02
-0.04
-0.21
-0.41
-0.52
-0.48
-0.29
-0.03
0.14
0.16
-0.01
-0.25
-0.43
-0.45
-0.29
-0.07
0.08
0.07
-0.07
-0.22
-0.24
-0.12
0.05
0.15
0.06
-0.17
-0.42
-0.51
-0.36
-0.04
0.30
0.49
0.42
0.15
-0.21
-0.53
-0.73
-0.82
-0.83
-0.80
-0.76
-0.69
-0.60
-0.47
-0.33
-0.20
-0.11
-0.04
0.03
0.12
0.28
0.50
0.75
0.95
1.02
0.90
0.59
0.17
-0.21
-0.45
-0.47
-0.30
0.01
0.33
0.58
0.71
0.70
0.58
0.43
0.30
0.25
0.28
0.35
0.38
0.37
0.33
0.34
0.41
0.53
0.60
0.55
0.34
0.01
-0.32
-0.57
-0.72
-0.79
-0.83
-0.84
-0.77
-0.60
-0.34
-0.09
0.06
0.04
-0.11
-0.27
-0.34
-0.24
-0.00
0.29
0.54
0.67
0.67
0.59
0.47
0.38
0.34
0.33
0.32
0.23
0.05
-0.22
-0.50
-0.72
-0.81
-0.82
-0.81
-0.83
-0.91
-0.96
-0.85
-0.54
-0.04
0.50
0.89
0.99
0.78
0.37
-0.06
-0.35
-0.41
-0.25
0.01
0.25
0.35
0.28
0.08
-0.17
-0.37
-0.47
-0.46
-0.38
-0.25
-0.08
0.13
0.38
0.63
0.80
0.83
0.68
0.40
0.10
-0.09
-0.12
-0.04
0.04
-0.02
-0.23
-0.50
-0.67
-0.60
-0.28
0.14
0.46
0.52
0.29
-0.07
-0.39
-0.49
-0.37
-0.12
0.12
0.24
0.23
0.14
0.06
0.00
-0.04
-0.12
-0.25
-0.41
-0.54
-0.55
-0.40
